Time (hr),Plant Height (m),Leaf Area (m²),Number of Leaves (unitless),Spikelet Count (unitless),Fruit Biomass (kg)
0,0.0010344827586206897,0.00022413793103448276,0.006896551724137931,0.3448275862068966,8.620689655172413e-05
1,0.001035118599082448,0.00022428257961804477,0.006904132507520779,0.34554230648523915,8.622767561492375e-05
2,0.0010357548301414725,0.00022442732149561122,0.006911721617835596,0.3462585077462291,8.624845968397234e-05
3,0.0010363914520374379,0.000224572156727282,0.006919319064215774,0.3469761930569313,8.626924876007457e-05
4,0.001037028465010165,0.0002247170853731957,0.006926924855804697,0.3476953654907551,8.629004284443539e-05
5,0.001037665869299622,0.00022486210749352942,0.006934539001755747,0.34841602812746786,8.631084193826001e-05
6,0.0010383036651459236,0.00022500722314849905,0.006942161511232316,0.3491381840532079,8.6331646042754e-05
7,0.0010389418527893318,0.00022515243239835914,0.00694979239340782,0.3498618363604975,8.635245515912315e-05
8,0.0010395804324702556,0.00022529773530340294,0.006957431657465707,0.35058698814825634,8.637326928857357e-05
9,0.0010402194044292512,0.0002254431319239625,0.006965079312599467,0.3513136425218145,8.639408843231167e-05
10,0.0010408587689070218,0.0002255886223204086,0.006972735368012646,0.3520418025929258,8.641491259154413e-05
11,0.0010414353598144576,0.00022571983359920362,0.006980398897977158,0.35289454680455085,8.643273546505693e-05
12,0.0010419603401407346,0.00022583930476631446,0.006988069857387915,0.3538792072878295,8.644821104670099e-05
13,0.0010424426488487909,0.00022594906907463206,0.0069957482162933985,0.35500127641477036,8.646183168242215e-05
14,0.0010428893816312906,0.00022605074056353676,0.007003433957107068,0.3562647876065282,8.647396769883485e-05
15,0.001043306179494963,0.0002261456024121447,0.007011127072321995,0.35767262281891,8.648489975658547e-05
16,0.0010436975546675472,0.00022623468105312147,0.007018827562604958,0.35922676457757546,8.649484293287936e-05
17,0.0010440671462049855,0.00022631880430498458,0.007026535435203888,0.36092850268955895,8.650396409546361e-05
18,0.0010444179154119242,0.00022639864581889887,0.007034250702621759,0.36277860302000936,8.651239433992264e-05
19,0.001044752294059179,0.00022647475879098613,0.007041973381517765,0.36477744447869564,8.652023791771338e-05
20,0.0010450722968448685,0.00022654760154264353,0.007049703491801307,0.3669251295316244,8.652757869510255e-05
21,0.0010453836859538467,0.00022661848522659354,0.007057441390571526,0.36917664800316824,8.653462270025015e-05
22,0.001045687367650497,0.00022668761600160432,0.007065187113106401,0.37152971863227024,8.654140455848481e-05
23,0.0010459841159947384,0.0002267551699524128,0.007072940693535649,0.3739822315741663,8.654795336659869e-05
24,0.0010462745968777413,0.00022682129855733214,0.007080702164816368,0.3765322473455333,8.65542937812742e-05
25,0.0010465593869235046,0.00022688613298797267,0.007088471558736469,0.37917799290348064,8.656044685758328e-05
26,0.0010468389884983461,0.00022694978752360693,0.007096248905937154,0.38191785589077554,8.656643070223326e-05
27,0.0010471138417384761,0.00022701236228721565,0.0071040342359481035,0.3847503777769737,8.657226098780732e-05
28,0.0010473843342701024,0.00022707394545663478,0.007111827577230797,0.3876742464079028,8.657795136150521e-05
29,0.0010476508091271878,0.0002271346150657052,0.007119628957226659,0.39068828831998215,8.658351377295663e-05
30,0.0010479135712489753,0.0002271944404823479,0.007127438402407677,0.3937914610638955,8.65889587393361e-05
31,0.001048176857962297,0.00022725438605090511,0.0071352564472743595,0.3969111174442137,8.659441829631183e-05
32,0.0010484406414107274,0.00022731444543579518,0.007143083097635821,0.40004779732531215,8.659989158166524e-05
33,0.0010487048962352717,0.00022737461286952398,0.007150918359644793,0.40320200501539266,8.66053778093598e-05
34,0.0010489695992849546,0.00022743488308685087,0.007158762239756587,0.40637421383553396,8.661087626082962e-05
35,0.0010492347293681301,0.00022749525126821766,0.0071666147446941735,0.40956487000610237,8.66163862774778e-05
36,0.0010495002670378268,0.0002275557129909201,0.007174475881418321,0.4127743959692805,8.662190725418864e-05
37,0.0010497661944056903,0.0002276162641867846,0.007182345657101932,0.41600319324308793,8.662743863369356e-05
38,0.001050032494980072,0.00022767690110533763,0.007190224079107897,0.419251644883997,8.663297990165956e-05
39,0.001050299153524599,0.0002277376202816343,0.007198111154969898,0.42252011762086605,8.66385305823918e-05
40,0.001050566155934195,0.00022779841850805656,0.0072060068923757055,0.4258089637115121,8.664409023506046e-05
41,0.0010508412334089047,0.00022786105556680348,0.0072139122288203406,0.4289799204735957,8.66499018899336e-05
42,0.0010511241489325406,0.00022792547758844177,0.007221827085033933,0.4320440125366618,8.665596147494506e-05
43,0.0010514146722332605,0.00022799163223656186,0.007229751393389978,0.43501090233396267,8.666226476935776e-05
44,0.0010517125800096826,0.0002280594687593246,0.0072376850960384825,0.4378890966756811,8.66688074428036e-05
45,0.0010520176560545834,0.0002281289380176898,0.007245628143388431,0.4406861168032947,8.667558508882493e-05
46,0.0010523296912967005,0.00022819999249499973,0.007253580492865682,0.4434086392135002,8.668259325358407e-05
47,0.0010526484837775408,0.0002282725862917639,0.007261542107889719,0.44606261293373717,8.668982746033987e-05
48,0.0010529738385770759,0.00022834667510880714,0.007269512957025534,0.44865335770970843,8.669728323022593e-05
49,0.0010533055676997163,0.00022842221622137307,0.0072774930132766275,0.45118564662948263,8.670495609980544e-05
50,0.0010536434899298841,0.0002284991684463052,0.007285482253492437,0.4536637759869045,8.671284163582204e-05
51,0.0010539887683253945,0.00022857779664012308,0.0072934807484909,0.45607754278713725,8.672098267342306e-05
52,0.001054341211127529,0.00022865805723234003,0.0073014884721284866,0.45843175729294877,8.672937487236395e-05
53,0.0010547006323090842,0.0002287399079555213,0.007309505402000947,0.4607307521379214,8.673801386393033e-05
54,0.001055066851548194,0.00022882330783935474,0.0073175315189627065,0.4629784411284222,8.674689526859485e-05
55,0.0010554396941713038,0.0002289082171976998,0.007325566806719091,0.4651783695322677,8.675601471125304e-05
56,0.0010558189910714743,0.00022899459761002158,0.0073336112514788224,0.46733375725650594,8.676536783431585e-05
57,0.001056204578607199,0.0002290824118983894,0.007341664841656625,0.4694475360597688,8.677495030890797e-05
58,0.0010565962984860709,0.00022917162410102698,0.007349727567617708,0.47152238173919464,8.678475784439504e-05
59,0.0010569939976369208,0.000229262199443239,0.0073577994214573846,0.4735607420668189,8.679478619643877e-05
60,0.0010573975280734475,0.00022935410430640073,0.0073658803968103,0.47556486111701746,8.680503117375742e-05
61,0.0010578114649109358,0.0002294483805653044,0.007373970699498208,0.4775032065596472,8.681566990102585e-05
62,0.001058235603333645,0.0002295449817254343,0.007382070304740665,0.4793808063356542,8.682669895875631e-05
63,0.0010586697400573495,0.00022964386163984871,0.007390179191394791,0.48120218376326157,8.683811463539804e-05
64,0.0010591136737986798,0.00022974497461594525,0.007398297341490694,0.48297141929924325,8.684991296439207e-05
65,0.0010595672056731053,0.00022984827550598903,0.0074064247398362175,0.4846922035120443,8.686208975823758e-05
66,0.0010600301395296567,0.00022995371978324776,0.0074145613736793054,0.4863678826769276,8.687464063972518e-05
67,0.0010605022822296937,0.00023006126360539616,0.00742270723241849,0.4880014981535028,8.688756107049861e-05
68,0.0010609834438762842,0.00023017086386668457,0.007430862307353714,0.48959582050426875,8.69008463771091e-05
69,0.0010614734380000898,0.00023028247824021262,0.007439026591471131,0.49115337914923696,8.691449177472586e-05
70,0.00106197208170703,0.0002303960652115087,0.007447200079256604,0.49267648821853777,8.692849238866328e-05
71,0.00106248651118928,0.00023051325029398062,0.00745538296263045,0.49413559981083227,8.69431547585327e-05
72,0.0010630164575895636,0.00023063397251891674,0.007463575215584003,0.49553627753551277,8.695847662728238e-05
73,0.0010635616445020947,0.000230758169198543,0.007471776816206826,0.49688347200757726,8.697445472404275e-05
74,0.0010641217895377222,0.00023088577628196767,0.007479987746127643,0.4981816017275851,8.699108484891034e-05
75,0.0010646966057448748,0.0002310167286783183,0.0074882079900432915,0.49943462171950503,8.700836195500676e-05
76,0.0010652858028948073,0.00023115096054900804,0.007496437535320193,0.500646081993883,8.702628022739553e-05
77,0.0010658890886397871,0.0002312884055710984,0.00750467637165579,0.5018191775217155,8.704483315854701e-05
78,0.0010665061695528332,0.00023142899717371965,0.007512924490789842,0.5029567910985054,8.706401362013439e-05
79,0.0010671367520574747,0.0002315726687494769,0.007521181886257296,0.5040615302320296,8.708381393102262e-05
80,0.00106778054325576,0.00023171935384271516,0.007529448553176026,0.5051357589888043,8.710422592137842e-05
81,0.0010684385653270264,0.00023186928561225623,0.007537724507383587,0.5061784961721729,8.712530405733645e-05
82,0.0010691104965526986,0.0002320223910580849,0.007546009744429072,0.5071920540851989,8.714703895887651e-05
83,0.0010697960161733576,0.00023217859739492114,0.007554304261234423,0.5081785317025641,8.716942073568515e-05
84,0.0010704948051700424,0.00023233783222985848,0.007562608055938172,0.5091398385589562,8.719243905353339e-05
85,0.001071206546954851,0.00023250002371937988,0.007570921127760016,0.5100777155345759,8.721608319639251e-05
86,0.0010719309279781446,0.0002326651007074129,0.007579243476883093,0.5109937529916986,8.724034212435299e-05
87,0.0010726676382592812,0.00023283299284600025,0.007587575104351346,0.5118894066429326,8.726520452744458e-05
88,0.0010734163718474205,0.00023300363070007346,0.007595916011979779,0.5127660114713983,8.729065887548199e-05
89,0.0010741768272185457,0.0002331769458377277,0.007604266202275785,0.5136247939730623,8.731669346408024e-05
90,0.0010749487076144497,0.00023335287090730524,0.007612625678369995,0.5144668829499776,8.734329645699877e-05
91,0.0010757317225274015,0.00023353133997562573,0.0076209944439670895,0.5152933171517439,8.737045598731274e-05
92,0.0010765255855051728,0.00023371228802764247,0.007629372503267387,0.5161050576913706,8.739816006707604e-05
93,0.0010773300155814743,0.00023389565129234037,0.0076377598609321026,0.5169029934587325,8.742639668311645e-05
94,0.001078144737432839,0.0002340813672784317,0.007646156522041034,0.517687947795405,8.745515382645092e-05
95,0.0010789694815006104,0.000234269374802122,0.007654562492054916,0.5184606844455086,8.748441951891249e-05
96,0.0010798039840816506,0.0002344596140077679,0.0076629777767818754,0.5192219128718785,8.751418183716494e-05
97,0.0010806479873910874,0.0002346520263821812,0.007671402382347461,0.5199722930146093,8.754442893427693e-05
98,0.0010815012396001378,0.00023484655476327008,0.007679836315167829,0.5207124395586118,8.757514905902204e-05
99,0.001082363494851788,0.00023504314334364839,0.007688279581925691,0.5214429257679387,8.76063305730651e-05
100,0.0010832345132568608,0.0002352417376697892,0.007696732189548709,0.5221642869370643,8.763796196618832e-05
101,0.0010841140622314337,0.00023544228494702188,0.007705194145200359,0.522877021851477,8.767003194399192e-05
102,0.0010850019136727342,0.00023564473339574547,0.007713665456240857,0.5235815990522096,8.770252928773335e-05
103,0.0010858978453396075,0.00023584903256622437,0.007722146130222635,0.5242784575638963,8.77354429421223e-05
104,0.001086801640791287,0.0002360551333247242,0.00773063617487601,0.5249680092001052,8.776876202410918e-05
105,0.001087713089316146,0.00023626298783737063,0.007739135598096203,0.5256506406555315,8.780247583037162e-05
106,0.0010886319858518375,0.0002364725495520526,0.0077476444079315485,0.5263267154076327,8.783657384360877e-05
107,0.0010895581308981027,0.00023668377317865894,0.007756162612572789,0.5269965754476071,8.787104573774656e-05
108,0.0010904913304233905,0.00023689661466790935,0.007764690220343324,0.5276605428582875,8.790588138214977e-05
109,0.0010914313957663222,0.00023711103118901375,0.007773227239690325,0.5283189212544932,8.79410708449307e-05
110,0.0010923781435329236,0.0002373269811063703,0.007781773679176624,0.5289719970996153,8.797660439543761e-05
111,0.0010933313963800574,0.00023754442415840638,0.007790329547479013,0.5296200400035146,8.801247255619732e-05
112,0.001094290981053017,0.00023776332101012716,0.007798894853369414,0.5302633057408891,8.804866599960797e-05
113,0.0010952567292406704,0.000237983633448289,0.007807469605715035,0.530902036250902,8.808517560266389e-05
114,0.0010962284774632082,0.00023820532435594113,0.007816053813472659,0.5315364605687593,8.812199244688637e-05
115,0.00109720606695899,0.00023842835768676234,0.007824647485683405,0.5321667956825828,8.8159107817767e-05
116,0.001098189343570956,0.00023865269843929783,0.0078332506314679,0.5327932473224866,8.819651320377572e-05
117,0.0010991781576330044,0.0002388783126311882,0.007841863260021838,0.5334160106880393,8.823420029498155e-05
118,0.001100172363856699,0.00023910516727347262,0.007850485380611892,0.5340352711196685,8.827216098133011e-05
119,0.0011011718212186165,0.0002393332303450367,0.007859117002571928,0.5346512047189895,8.831038735061832e-05
120,0.0011021763928486085,0.00023956247076726783,0.00786775813529952,0.5352639789225494,8.834887168620335e-05
121,0.0011031859463009634,0.00023979285846608585,0.007876408788254926,0.5358737526871538,8.838760648644473e-05
122,0.0011042003526243994,0.0002400243641598765,0.00788506897095333,0.5364806777317752,8.842658441480303e-05
123,0.0011052194866951902,0.00024025695943564437,0.007893738692964662,0.5370848985870895,8.846579832224163e-05
124,0.001106243227111116,0.0002404906167249576,0.00790241796391103,0.5376865530198007,8.850524124418313e-05
125,0.001107271456087219,0.00024072530928030168,0.007911106793464334,0.5382857724270199,8.854490639734177e-05
126,0.0011083040593534703,0.0002409610111518664,0.007919805191344054,0.5388826822031455,8.858478717645324e-05
127,0.001109340926054431,0.00024119769716478525,0.007928513167315184,0.5394774020814667,8.862487715092095e-05
128,0.0011103819486509771,0.00024143534289684313,0.00793723073118632,0.5400700464525077,8.866517006139618e-05
129,0.001111427022824144,0.00024167392465666398,0.007945957892807866,0.5406607246609497,8.870565981630809e-05
130,0.001112476047381127,0.00024191341946238823,0.00795469466207038,0.5412495412828023,8.87463404883574e-05
131,0.0011135289242485147,0.00024215380504026218,0.007963441048903463,0.5418365963132171,8.878720631593702e-05
132,0.0011145855581643634,0.00024239505975447,0.00797219706327314,0.5424219855918389,8.882825168688639e-05
133,0.0011156458567256754,0.0002426371626180968,0.007980962715181238,0.5430058009151281,8.886947114278957e-05
134,0.0011167097303031756,0.00024288009327379624,0.007989738014664106,0.5435881302486381,8.891085937543812e-05
135,0.0011177770919582955,0.00024312383197495855,0.00799852297179144,0.544169057925944,8.895241122330961e-05
136,0.0011188478573623505,0.00024336835956737624,0.00800731759666516,0.5447486648352003,8.899412166806867e-05
137,0.001119921944717892,0.0002436136574714029,0.008016121899418372,0.5453270285942183,8.903598583109733e-05
138,0.001120999274682213,0.00024385970766460026,0.008024935890214394,0.5459042237148892,8.907799897005993e-05
139,0.0011220797702929755,0.00024410649266486706,0.008033759579245832,0.5464803217577032,8.91201564755078e-05
140,0.0011231633568959344,0.0002443539955140429,0.008042592976733721,0.5470553914770614,8.91624538675278e-05
141,0.001124249961973937,0.0002446021997389587,0.008051436092926197,0.5476294990378973,8.920488678653626e-05
142,0.0011253395152515532,0.0002448510893754386,0.008060288938098627,0.5482027080066897,8.924745100014472e-05
143,0.001126431948557806,0.00024510064893705144,0.008069151522552529,0.5487750795296541,8.929014239580077e-05
144,0.0011275271957618847,0.00024535086340052623,0.008078023856614894,0.5493466724471824,8.933295697764294e-05
145,0.0011286251927107608,0.0002456017181916004,0.00808690595063755,0.549917543401803,8.93758908634133e-05
146,0.0011297258771686706,0.0002458531991712903,0.008095797814996567,0.5504877469400885,8.941894028142907e-05
147,0.0011308291887584157,0.0002461052926225746,0.00810469946009169,0.5510573356089071,8.946210156761458e-05
148,0.0011319350689044411,0.0002463579852374809,0.00811361089634581,0.5516263600463827,8.950537116259452e-05
149,0.0011330434607776476,0.0002466112641045653,0.008122532134204458,0.5521948690679036,8.954874560884897e-05
150,0.001134154309241891,0.00024686511669677494,0.008131463184135332,0.5527629097474943,8.959222154793079e-05
151,0.001135267560644127,0.00024711953082357625,0.008140404056627054,0.5533305276156928,8.963579570847099e-05
152,0.001136383163063705,0.00024737449468800325,0.008149354762190255,0.5538977665026849,8.967946492110734e-05
153,0.0011375010661226898,0.0002476299968433958,0.008158315311356466,0.5544646687159168,8.972322610761143e-05
154,0.001138621220938663,0.0002478860261826917,0.008167285714677735,0.5550312751056576,8.976707627835457e-05
155,0.0011397435800790008,0.0002481425719280531,0.00817626598272627,0.5555976251271867,8.981101252983546e-05
156,0.0011408680975165794,0.00024839962362081694,0.008185256126094102,0.5561637568998117,8.985503204226893e-05
157,0.0011419947285868713,0.0002486571711117609,0.00819425615539276,0.5567297072629038,8.989913207723529e-05
158,0.00114312342994639,0.000248915204551675,0.008203266081252963,0.5572955118291265,8.994330997538935e-05
159,0.0011442541595324432,0.0002491737143822303,0.008212285914324342,0.5578612050350222,8.998756315422855e-05
160,0.0011453868765241557,0.0002494326913271348,0.008221315665275154,0.5584268201891106,9.003188910591909e-05
161,0.0011465215414801207,0.0002496921264236726,0.008230355344792904,0.5589923893864878,9.007628540547125e-05
162,0.001147658115960893,0.00024995201093646024,0.008239404963582393,0.5595579438077684,9.01207496886644e-05
163,0.0011487965626588153,0.0002502123363871861,0.008248464532366316,0.5601235136365366,9.016527965974381e-05
164,0.0011499368453637539,0.000250473094546836,0.008257534061885034,0.560689128098816,9.02098730894703e-05
165,0.0011510789289299204,0.00025073427742816466,0.008266613562896362,0.561254815500679,9.025452781322304e-05
166,0.0011522227792437466,0.00025099587727840645,0.008275703046175373,0.5618206032640978,9.029924172915438e-05
167,0.0011533683631927767,0.0002512578865722164,0.008284802522514206,0.5623865179611331,9.034401279639558e-05
168,0.001154515648635547,0.00025152029800483585,0.008293912002721884,0.5629525853465519,9.03888390333124e-05
169,0.0011556646043724202,0.0002517831044854738,0.00830303149762414,0.5635188303889556,9.043371851580932e-05
170,0.0011568152001173453,0.00025204629913089894,0.008312161018063261,0.5640852773005013,9.047864937568141e-05
171,0.001157967036344952,0.00025230979059204727,0.008321300573057099,0.5646522227524736,9.052360813202941e-05
172,0.0011591201122658872,0.00025257357871814927,0.00833045017361617,0.5652196687515539,9.056859467499926e-05
173,0.001160274427140888,0.0002528376633698484,0.008339609830763288,0.565787617268015,9.061360889782324e-05
174,0.0011614299802793087,0.00025310204441886686,0.008348779555533566,0.5663560702368562,9.065865069672727e-05
175,0.0011625867710376996,0.00025336672174768304,0.008357959358974432,0.5669250295588989,9.070371997084137e-05
176,0.0011637447988184348,0.0002536316952492204,0.008367149252145628,0.5674944971018416,9.074881662211339e-05
177,0.0011649040630683889,0.000253896964826547,0.00837634924611922,0.5680644747012782,9.079394055522554e-05
178,0.0011660645632776588,0.0002541625303925857,0.00838555935197961,0.5686349641616799,9.083909167751398e-05
179,0.0011672262989783292,0.00025442839186983406,0.008394779580823531,0.569205967257343,9.088426989889108e-05
180,0.001168389269743282,0.000254694549190094,0.008404009943760074,0.5697774857333026,9.09294751317703e-05
