Time (hr),Plant Height (m),Leaf Area (m²),Number of Leaves (unitless),Spikelet Count (unitless),Fruit Biomass (kg)
0,0.0010344827586206897,0.00022413793103448276,0.006896551724137931,0.3448275862068966,8.620689655172413e-05
1,0.0010351185990783447,0.00022428257961862539,0.006904132507520779,0.3455423064910137,8.622767561513709e-05
2,0.001035754830133261,0.0002244273214967742,0.006911721617835596,0.34625850775781414,8.624845968439918e-05
3,0.0010363914520251129,0.00022457215672902906,0.006919319064215774,0.3469761930743629,8.626924876071507e-05
4,0.0010370284649937216,0.00022471708537552857,0.006926924855804697,0.3476953655140696,8.629004284528968e-05
5,0.001037665869279055,0.00022486210749644985,0.006934539001755747,0.3484160281567017,8.631084193932828e-05
6,0.0010383036651212282,0.0002250072231520088,0.006942161511232316,0.3491381840883977,8.633164604403638e-05
7,0.0010389418527605029,0.00022515243240245992,0.00694979239340782,0.34986183640168006,8.635245516061981e-05
8,0.001039580432437288,0.0002252977353080965,0.006957431657465707,0.35058698819546863,8.637326929028466e-05
9,0.0010402194043921398,0.0002254431319292506,0.006965079312599467,0.3513136425750937,8.639408843423734e-05
10,0.0010408587688657616,0.00022558862232629297,0.006972735368012646,0.35204180265230917,8.641491259368453e-05
11,0.0010414353597697917,0.00022571983360568726,0.006980398897977158,0.35289454686984145,8.643273546737422e-05
12,0.0010419603400932227,0.00022583930477338888,0.006988069857387915,0.35387920735886724,8.644821104916654e-05
13,0.0010424426487988623,0.00022594906908228227,0.0069957482162933985,0.3550012764914238,8.646183168501393e-05
14,0.0010428893815792807,0.0002260507405717443,0.007003433957107068,0.3562647876886895,8.647396770153557e-05
15,0.0010433061794411387,0.00022614560242088956,0.007011127072321995,0.35767262290649154,8.648489975938135e-05
16,0.0010436975546121235,0.00022623468106238326,0.007018827562604958,0.35922676467050724,8.649484293575924e-05
17,0.0010440671461481386,0.00022631880431474313,0.007026535435203888,0.3609285027877869,8.650396409841836e-05
18,0.0010444179153538,0.00022639864582913466,0.007034250702621759,0.3627786031234938,8.651239434294467e-05
19,0.0010447522939999,0.00022647475880168045,0.007041973381517765,0.36477744458741024,8.65202379207963e-05
20,0.0010450722967845383,0.0002265476015537787,0.007049703491801307,0.36692512964555507,8.652757869824093e-05
21,0.0010453836858925409,0.00022661848523815165,0.007057441390571526,0.36917664812226875,8.653462270344001e-05
22,0.0010456873675882823,0.00022668761601356882,0.007065187113106401,0.371529718756505,8.654140456172265e-05
23,0.001045984115931673,0.00022675516996476826,0.007072940693535649,0.37398223170350936,8.654795336988141e-05
24,0.0010462745968138768,0.00022682129857006422,0.007080702164816368,0.3765322474799675,8.655429378459906e-05
25,0.001046559386858887,0.00022688613300106804,0.007088471558736469,0.3791779930429968,8.656044686094787e-05
26,0.0010468389884330167,0.00022694978753705312,0.007096248905937154,0.3819178560353719,8.656643070563538e-05
27,0.001047113841672472,0.000227012362301001,0.0071040342359481035,0.38475037792665534,8.657226099124498e-05
28,0.0010473843342034574,0.00022707394547074838,0.007111827577230797,0.3876742465626811,8.657795136497665e-05
29,0.0010476508090599323,0.0002271346150801368,0.007119628957226659,0.3906882884798744,8.658351377646021e-05
30,0.0010479135711811375,0.00022719444049708784,0.007127438402407677,0.3937914612289245,8.658895874287035e-05
31,0.0010481768578938936,0.0002272543860659438,0.0071352564472743595,0.39691111761434844,8.659441829987583e-05
32,0.0010484406413417743,0.0002273144454511236,0.007143083097635821,0.40004779750052655,8.659989158525811e-05
33,0.001048704896165784,0.00022737461288513367,0.007150918359644793,0.4032020051956652,8.660537781298072e-05
34,0.0010489695992149466,0.0002274348831027339,0.007158762239756587,0.4063742140208471,8.661087626447781e-05
35,0.0010492347292976152,0.00022749525128436653,0.0071666147446941735,0.4095648701964425,8.661638628115253e-05
36,0.0010495002669668177,0.0002275557130073277,0.007174475881418321,0.4127743961646375,8.662190725788921e-05
37,0.001049766194334199,0.00022761626420344426,0.007182345657101932,0.4160031934434549,8.662743863741932e-05
38,0.0010500324949081102,0.00022767690112224302,0.007190224079107897,0.41925164508937,8.663297990540989e-05
39,0.0010502991534521774,0.00022773762029877943,0.007198111154969898,0.42252011783124405,8.66385305861661e-05
40,0.0010505661558613238,0.00022779841852543575,0.0072060068923757055,0.4258089639268967,8.664409023885817e-05
41,0.0010508412333355812,0.00022786105558441047,0.0072139122288203406,0.4289799206938736,8.66499018937548e-05
42,0.0010511241488587624,0.00022792547760627064,0.007221827085033933,0.43204401276172716,8.665596147878983e-05
43,0.0010514146721590256,0.00022799163225460697,0.007229751393389978,0.4350109025637164,8.666226477322615e-05
44,0.0010517125799349894,0.00022805946877758055,0.0072376850960384825,0.4378890969100303,8.666880744669564e-05
45,0.0010520176559794306,0.0002281289380361515,0.007245628143388431,0.4406861170421522,8.667558509274065e-05
46,0.0010523296912210876,0.00022819999251366224,0.007253580492865682,0.44340863945678405,8.668259325752346e-05
47,0.001052648483701467,0.00022827258631062257,0.007261542107889719,0.44606261318137014,8.668982746430292e-05
48,0.0010529738385005407,0.00022834667512785747,0.007269512957025534,0.44865335796161776,8.669728323421263e-05
49,0.00105330556762272,0.0002284222162406108,0.0072774930132766275,0.4511856468855997,8.670495610381572e-05
50,0.0010536434898524268,0.00022849916846572627,0.007285482253492437,0.45366377624716436,8.671284163985588e-05
51,0.0010539887682474746,0.00022857779665972342,0.0072934807484909,0.45607754305146525,8.672098267748047e-05
52,0.0010543412110491455,0.00022865805725211577,0.0073014884721284866,0.4584317575612744,8.672937487644495e-05
53,0.0010547006322302363,0.00022873990797546873,0.007309505402000947,0.4607307524101779,8.673801386803493e-05
54,0.0010550668514688808,0.00022882330785947027,0.0073175315189627065,0.4629784414045463,8.674689527272303e-05
55,0.0010554396940915247,0.00022890821721798,0.007325566806719091,0.4651783698121995,8.675601471540479e-05
56,0.0010558189909912294,0.0002289945976304632,0.0073336112514788224,0.46733375754018847,8.676536783849115e-05
57,0.0010562045785264883,0.0002290824119189893,0.007341664841656625,0.469447536347148,8.677495031310679e-05
58,0.001056596298404894,0.0002291716241217821,0.007349727567617708,0.471522382030219,8.678475784861733e-05
59,0.0010569939975552782,0.0002292621994641465,0.0073577994214573846,0.4735607423614396,8.679478620068448e-05
60,0.0010573975279913395,0.00022935410432745778,0.0073658803968103,0.4755648614151877,8.680503117802649e-05
61,0.0010578114648283575,0.00022944838058650785,0.007373970699498208,0.47750320686128855,8.681566990531848e-05
62,0.001058235603250592,0.0002295449817467811,0.007382070304740665,0.47938080664069255,8.682669896307268e-05
63,0.0010586697399738176,0.00022964386166133592,0.007390179191394791,0.4812021840716269,8.683811463973832e-05
64,0.0010591136737146652,0.00022974497463757005,0.007398297341490694,0.4829714196108693,8.68499129687564e-05
65,0.0010595672055886043,0.00022984827552774865,0.0074064247398362175,0.48469220382686834,8.686208976262611e-05
66,0.001060030139444666,0.00022995371980513956,0.0074145613736793054,0.4863678829948901,8.687464064413802e-05
67,0.0010605022821442102,0.00023006126362741766,0.00742270723241849,0.4880014984745472,8.688756107493587e-05
68,0.0010609834437903052,0.00023017086388883333,0.007430862307353714,0.48959582082834135,8.690084638157088e-05
69,0.0010614734379136128,0.00023028247826248628,0.007439026591471131,0.4911533794762866,8.691449177921223e-05
70,0.0010619720816200527,0.000230396065233905,0.007447200079256604,0.49267648854851576,8.692849239317433e-05
71,0.001062486511101793,0.00023051325031649665,0.00745538296263045,0.49413560014365754,8.694315476306885e-05
72,0.0010630164575015579,0.0002306339725415497,0.007463575215584003,0.4955362778711095,8.695847663184401e-05
73,0.0010635616444135618,0.00023075816922129015,0.007471776816206826,0.49688347234587454,8.697445472863024e-05
74,0.0010641217894486541,0.0002308857763048264,0.007479987746127643,0.4981816020685164,8.699108485352402e-05
75,0.001064696605655264,0.00023101672870128606,0.0074882079900432915,0.499434622063008,8.700836195964697e-05
76,0.0010652858028046463,0.00023115096057208241,0.007496437535320193,0.5006460823398989,8.702628023206256e-05
77,0.0010658890885490693,0.00023128840559427703,0.00750467637165579,0.5018191778701889,8.704483316324115e-05
78,0.0010665061694615523,0.00023142899719700032,0.007512924490789842,0.5029567914493843,8.70640136248559e-05
79,0.0010671367519656245,0.00023157266877285742,0.007521181886257296,0.5040615305852646,8.708381393577175e-05
80,0.001067780543163335,0.00023171935386619345,0.007529448553176026,0.5051357593443488,8.71042259261554e-05
81,0.0010684385652340203,0.00023186928563583015,0.007537724507383587,0.5061784965299793,8.712530406214156e-05
82,0.0010691104964591052,0.0002320223910817524,0.007546009744429072,0.5071920544452218,8.714703896370998e-05
83,0.0010697960160791714,0.0002321785974186803,0.007554304261234423,0.5081785320647608,8.716942074054721e-05
84,0.001070494805075258,0.00023233783225370738,0.007562608055938172,0.5091398389232863,8.719243905842426e-05
85,0.0010712065468594632,0.00023250002374331673,0.007570921127760016,0.510077715901001,8.72160832013124e-05
86,0.0010719309278821487,0.00023266510073143598,0.007579243476883093,0.5109937533601824,8.724034212930207e-05
87,0.001072667638162673,0.0002328329928701079,0.007587575104351346,0.5118894070134407,8.726520453242302e-05
88,0.0010734163717501957,0.0002330036307242641,0.007595916011979779,0.5127660118438978,8.729065888048995e-05
89,0.0010741768271207007,0.0002331769458619998,0.007604266202275785,0.513624794347522,8.731669346911785e-05
90,0.0010749487075159812,0.00023335287093165737,0.007612625678369995,0.5144668833263677,8.734329646206615e-05
91,0.001075731722428306,0.00023353134000005652,0.0076209944439670895,0.5152933175300362,8.737045599241001e-05
92,0.0010765255854054475,0.0002337122880521506,0.007629372503267387,0.516105058071538,8.73981600722033e-05
93,0.0010773300154811162,0.00023389565131692454,0.0076377598609321026,0.5169029938407491,8.74263966882738e-05
94,0.0010781447373318458,0.00023408136730309074,0.007646156522041034,0.5176879481792461,8.745515383163842e-05
95,0.0010789694813989799,0.00023426937482685475,0.007654562492054916,0.5184606848311507,8.748441952413023e-05
96,0.0010798039839793807,0.00023445961403257325,0.0076629777767818754,0.5192219132592989,8.751418184241297e-05
97,0.001080647987288176,0.00023465202640705812,0.007671402382347461,0.5199722934037865,8.75444289395553e-05
98,0.0010815012394965835,0.00023484655478821757,0.007679836315167829,0.520712439949525,8.75751490643308e-05
99,0.001082363494747589,0.0002350431433686655,0.007688279581925691,0.521442926160568,8.760633057840426e-05
100,0.001083234513152016,0.00023524173769487504,0.007696732189548709,0.5221642873313906,8.763796197155793e-05
101,0.001084114062125942,0.0002354422849721756,0.007705194145200359,0.5228770222474821,8.767003194939199e-05
102,0.0010850019135665945,0.00023564473342096618,0.007713665456240857,0.5235815994498759,8.770252929316389e-05
103,0.0010858978452328188,0.0002358490325915113,0.007722146130222635,0.524278457963207,8.773544294758332e-05
104,0.001086801640683849,0.0002360551333500766,0.00773063617487601,0.5249680096010441,8.776876202960068e-05
105,0.0010877130892080577,0.00023626298786278782,0.007739135598096203,0.5256506410580829,8.780247583589358e-05
106,0.0010886319857430985,0.00023647254957753392,0.0077476444079315485,0.5263267158117816,8.783657384916119e-05
107,0.0010895581307887128,0.00023668377320420374,0.007756162612572789,0.526996575853339,8.78710457433294e-05
108,0.0010904913303133494,0.000236896614693517,0.007764690220343324,0.5276605432655884,8.790588138776302e-05
109,0.0010914313956556297,0.0002371110312146837,0.007773227239690325,0.5283189216633498,8.794107085057433e-05
110,0.0010923781434215797,0.000237326981132102,0.007781773679176624,0.5289719975100146,8.797660440111158e-05
111,0.001093331396268062,0.00023754442418419928,0.007790329547479013,0.5296200404154441,8.80124725619016e-05
112,0.0010942909809403705,0.00023776332103598078,0.007798894853369414,0.5302633061543366,8.80486660053425e-05
113,0.0010952567291273732,0.00023798363347420285,0.007807469605715035,0.5309020366658559,8.808517560842863e-05
114,0.0010962284773492605,0.00023820532438191476,0.007816053813472659,0.5315364609852083,8.812199245268128e-05
115,0.0010972060668443923,0.00023842835771279537,0.007824647485683405,0.5321667961005163,8.815910782359204e-05
116,0.0010981893434557086,0.0002386526984653898,0.0078332506314679,0.5327932477418937,8.819651320963082e-05
117,0.001099178157517108,0.00023887831265733878,0.007841863260021838,0.5334160111089101,8.823420030086665e-05
118,0.0011001723637401543,0.00023910516729968141,0.007850485380611892,0.5340352715419932,8.827216098724515e-05
119,0.0011011718211014238,0.0002393332303713034,0.007859117002571928,0.5346512051427585,8.831038735656325e-05
120,0.0011021763927307688,0.0002395624707935921,0.00786775813529952,0.5352639793477536,8.834887169217809e-05
121,0.0011031859461824774,0.0002397928584924674,0.007876408788254926,0.5358737531137843,8.838760649244922e-05
122,0.001104200352505268,0.00024002436418631503,0.00788506897095333,0.5364806781598234,8.84265844208372e-05
123,0.0011052194865754145,0.00024025695946213965,0.007893738692964662,0.537084899016547,8.846579832830541e-05
124,0.0011062432269906964,0.00024049061675150934,0.00790241796391103,0.5376865534506595,8.850524125027644e-05
125,0.001107271455966157,0.00024072530930690966,0.007911106793464334,0.5382857728592721,8.854490640346453e-05
126,0.0011083040592317667,0.00024096101117853036,0.007919805191344054,0.5388826826367836,8.858478718260539e-05
127,0.0011093409259320868,0.00024119769719150504,0.007928513167315184,0.5394774025164834,8.862487715710239e-05
128,0.0011103819485279933,0.0002414353429236185,0.00793723073118632,0.5400700468888957,8.866517006760684e-05
129,0.0011114270227005217,0.0002416739246834948,0.007945957892807866,0.5406607250987022,8.870565982254789e-05
130,0.0011124760472568675,0.0002419134194892743,0.00795469466207038,0.5412495417219128,8.874634049462626e-05
131,0.0011135289241236191,0.00024215380506720333,0.007963441048903463,0.5418365967536788,8.878720632223485e-05
132,0.001114585558038833,0.00024239505978146609,0.00797219706327314,0.5424219860336457,8.882825169321312e-05
133,0.0011156458565995111,0.0002426371626451477,0.007980962715181238,0.5430058013582738,8.88694711491451e-05
134,0.0011167097301763788,0.00024288009330090181,0.007989738014664106,0.5435881306931168,8.891085938182237e-05
135,0.0011177770918308673,0.00024312383200211869,0.00799852297179144,0.5441690583717502,8.895241122972249e-05
136,0.001118847857234292,0.00024336835959459083,0.00800731759666516,0.5447486652823282,8.89941216745101e-05
137,0.001119921944589205,0.00024361365749867183,0.008016121899418372,0.5453270290426626,8.903598583756722e-05
138,0.0011209992745528986,0.00024385970769192343,0.008024935890214394,0.5459042241646446,8.90779989765582e-05
139,0.0011220797701630347,0.00024410649269224438,0.008033759579245832,0.5464803222087645,8.912015648203436e-05
140,0.0011231633567653687,0.00024435399554147434,0.008042592976733721,0.5470553919294237,8.916245387408255e-05
141,0.001124249961842748,0.0002446021997664442,0.008051436092926197,0.5476294994915557,8.920488679311912e-05
142,0.001125339515119742,0.0002448510894029781,0.008060288938098627,0.5482027084616397,8.924745100675559e-05
143,0.001126431948425374,0.0002451006489646449,0.008069151522552529,0.548775079985891,8.929014240243957e-05
144,0.0011275271956288331,0.00024535086342817355,0.008078023856614894,0.549346672904702,8.933295698430958e-05
145,0.001128625192577091,0.00024560171821930155,0.00808690595063755,0.5499175438606009,8.937589087010768e-05
146,0.001129725877034384,0.0002458531991990452,0.008095797814996567,0.5504877474001606,8.94189402881511e-05
147,0.0011308291886235136,0.00024610529265038325,0.00810469946009169,0.5510573360702493,8.946210157436417e-05
148,0.0011319350687689252,0.00024635798526534327,0.00811361089634581,0.551626360508991,8.95053711693716e-05
149,0.001133043460641519,0.0002466112641324814,0.008122532134204458,0.5521948695317743,8.954874561565344e-05
150,0.0011341543091051513,0.0002468651167247447,0.008131463184135332,0.5527629102126237,8.959222155476255e-05
151,0.0011352675605067774,0.00024711953085159973,0.008140404056627054,0.5533305280820772,8.963579571532995e-05
152,0.001136383162925747,0.0002473744947160804,0.008149354762190255,0.5538977669703208,8.967946492799342e-05
153,0.0011375010659841246,0.0002476299968715266,0.008158315311356466,0.554464669184801,8.972322611452455e-05
154,0.0011386212207994922,0.0002478860262108762,0.008167285714677735,0.5550312755757867,8.976707628529463e-05
155,0.0011397435799392257,0.00024814257195629127,0.00817626598272627,0.5555976255985575,8.981101253680236e-05
156,0.0011408680973762012,0.0002483996236491088,0.008185256126094102,0.5561637573724212,8.98550320492626e-05
157,0.0011419947284458916,0.0002486571711401065,0.00819425615539276,0.5567297077367489,8.989913208425564e-05
158,0.00114312342980481,0.00024891520458007434,0.008203266081252963,0.5572955123042043,8.99433099824363e-05
159,0.0011442541593902644,0.00024917371441068333,0.008212285914324342,0.5578612055113299,8.998756316130199e-05
160,0.0011453868763813793,0.00024943269135564163,0.008221315665275154,0.5584268206666453,9.003188911301893e-05
161,0.0011465215413367482,0.00024969212645223327,0.008230355344792904,0.5589923898652469,9.007628541259742e-05
162,0.0011476581158169257,0.0002499520109650747,0.008239404963582393,0.5595579442877493,9.01207496958168e-05
163,0.0011487965625142547,0.00025021233641585447,0.008248464532366316,0.5601235141177368,9.016527966692235e-05
164,0.0011499368452186011,0.00025047309457555824,0.008257534061885034,0.560689128581233,9.02098730966749e-05
165,0.001151078928784177,0.00025073427745694085,0.008266613562896362,0.5612548159843104,9.025452782045362e-05
166,0.0011522227790974138,0.0002509958773072366,0.008275703046175373,0.5618206037489413,9.029924173641086e-05
167,0.001153368363045856,0.0002512578866011006,0.008284802522514206,0.5623865184471866,9.034401280367788e-05
168,0.0011545156484880396,0.00025152029803377407,0.008293912002721884,0.562952585833813,9.038883904062042e-05
169,0.0011556646042243275,0.00025178310451446614,0.00830303149762414,0.5635188308774223,9.043371852314297e-05
170,0.0011568151999686684,0.0002520462991599455,0.008312161018063261,0.5640852777901716,9.047864938304062e-05
171,0.0011579670361956925,0.00025230979062114807,0.008321300573057099,0.5646522232433459,9.052360813941408e-05
172,0.0011591201121160465,0.0002525735787473044,0.00833045017361617,0.5652196692436265,9.05685946824093e-05
173,0.0011602744269904675,0.0002528376633990579,0.008339609830763288,0.5657876177612864,9.061360890525857e-05
174,0.00116142998012831,0.0002531020444481308,0.008348779555533566,0.5663560707313249,9.065865070418778e-05
175,0.0011625867708861238,0.00025336672177700143,0.008357959358974432,0.5669250300545634,9.0703719978327e-05
176,0.0011637447986662835,0.00025363169527859336,0.008367149252145628,0.5674944975987004,9.074881662962404e-05
177,0.0011649040629156634,0.0002538969648559746,0.00837634924611922,0.5680644751993299,9.079394056276112e-05
178,0.0011660645631243604,0.000254162530422068,0.00838555935197961,0.5686349646609232,9.083909168507442e-05
179,0.0011672262988244595,0.0002544283918993712,0.008394779580823531,0.5692059677577764,9.08842699064763e-05
180,0.0011683892695888418,0.000254694549219686,0.008404009943760074,0.5697774862349249,9.09294751393802e-05
