Time (hr),Plant Height (m),Leaf Area (m²),Number of Leaves (unitless),Spikelet Count (unitless),Fruit Biomass (kg)
0,0.0010344827586206897,0.00022413793103448276,0.006896551724137931,0.3448275862068966,8.620689655172413e-05
1,0.0010351185991037783,0.00022428257962225969,0.006904132507520779,0.345542306482809,8.62276756148342e-05
2,0.0010357548301841595,0.0002244273215040461,0.006911721617835596,0.3462585077413537,8.624845968379318e-05
3,0.0010363914521015077,0.00022457215673994188,0.006919319064215774,0.34697619304959537,8.626924875980572e-05
4,0.001037028465095644,0.00022471708539008558,0.006926924855804697,0.34769536548094343,8.629004284407679e-05
5,0.0010376658694065362,0.0002248621075146544,0.006934539001755747,0.34841602811516514,8.631084193781162e-05
6,0.0010383036652742996,0.00022500722317386415,0.006942161511232316,0.3491381840383987,8.633164604221572e-05
7,0.0010389418529391959,0.00022515243242796938,0.00694979239340782,0.34986183634316637,8.635245515849494e-05
8,0.0010395804326416341,0.0002252977353372634,0.006957431657465707,0.3505869881283877,8.637326928785536e-05
9,0.0010402194046221704,0.0002254431319620782,0.006965079312599467,0.3513136424993927,8.639408843150339e-05
10,0.0010408587691215082,0.0002255886223627846,0.006972735368012646,0.35204180256793505,8.641491259064571e-05
11,0.0010414353600466484,0.00022571983364503103,0.006980398897977158,0.35289454677707416,8.643273546408428e-05
12,0.0010419603403877208,0.00022583930481498852,0.006988069857387915,0.3538792072579342,8.64482110456661e-05
13,0.0010424426491083402,0.0002259490691256923,0.0069957482162933985,0.3550012763825118,8.646183168133429e-05
14,0.001042889381901659,0.0002260507406166262,0.007003433957107068,0.3562647875719517,8.647396769770126e-05
15,0.0010433061797747644,0.00022614560246698187,0.007011127072321995,0.35767262278205253,8.648489975541193e-05
16,0.001043697554955663,0.00022623468110948103,0.007018827562604958,0.35922676453846647,8.649484293167055e-05
17,0.0010440671465005002,0.00022631880436268354,0.007026535435203888,0.3609285026482212,8.65039640942234e-05
18,0.001044417915714079,0.00022639864587778677,0.007034250702621759,0.3627786029764595,8.651239433865419e-05
19,0.001044752294367338,0.0002264747588509378,0.007041973381517765,0.36477744443294474,8.652023791641939e-05
20,0.0010450722971584927,0.00022654760160355374,0.007049703491801307,0.36692512948367845,8.652757869378528e-05
21,0.0010453836862725418,0.00022661848528838735,0.007057441390571526,0.36917664795304667,8.653462269891128e-05
22,0.001045687367973919,0.00022668761606421664,0.007065187113106401,0.37152971857998807,8.654140455712582e-05
23,0.0010459841163225835,0.00022675517001578667,0.007072940693535649,0.3739822315197344,8.654795336522084e-05
24,0.0010462745972097411,0.00022682129862141738,0.007080702164816368,0.37653224728895895,8.655429377987865e-05
25,0.0010465593872594193,0.0002268861330527248,0.007088471558736469,0.37917799284476766,8.656044685617107e-05
26,0.001046838988837961,0.0002269497875889863,0.007096248905937154,0.38191785582992466,8.65664307008053e-05
27,0.001047113842081598,0.00022701236235318675,0.0071040342359481035,0.3847503777139828,8.657226098636443e-05
28,0.0010473843346165564,0.00022707394552316565,0.007111827577230797,0.38767424634276715,8.657795136004816e-05
29,0.0010476508094768152,0.00022713461513276695,0.007119628957226659,0.3906882882526944,8.658351377148608e-05
30,0.0010479135716016314,0.0002271944405499143,0.007127438402407677,0.3937914609944462,8.658895873785268e-05
31,0.0010481768583178934,0.00022725438611896176,0.0071352564472743595,0.39691111737261575,8.659441829481593e-05
32,0.001048440641769181,0.00022731444550432852,0.007143083097635821,0.4000477972515766,8.659989158015723e-05
33,0.0010487048965965044,0.00022737461293852122,0.007150918359644793,0.40320200493952857,8.660537780784001e-05
34,0.0010489695996488927,0.00022743488315629995,0.007158762239756587,0.4063742137575487,8.661087625929838e-05
35,0.0010492347297347037,0.00022749525133810715,0.0071666147446941735,0.4095648699260016,8.661638627593543e-05
36,0.0010495002674069697,0.00022755571306123915,0.007174475881418321,0.41277439588706855,8.662190725263543e-05
37,0.00104976619477734,0.00022761626425752294,0.007182345657101932,0.41600319315876766,8.662743863212977e-05
38,0.0010500324953541691,0.0002276769011764855,0.007190224079107897,0.41925164479757004,8.663297990008546e-05
39,0.001050299153901087,0.00022773762035318242,0.007198111154969898,0.4225201175323329,8.663853058080765e-05
40,0.0010505661563130198,0.00022779841857999608,0.0072060068923757055,0.42580896362087206,8.664409023346648e-05
41,0.0010508412337900813,0.00022786105563914018,0.0072139122288203406,0.4289799203808964,8.664990188832976e-05
42,0.0010511241493160815,0.00022792547766118076,0.007221827085033933,0.43204401244194784,8.665596147333132e-05
43,0.0010514146726191757,0.0002279916323097077,0.007229751393389978,0.4350109022372758,8.66622647677341e-05
44,0.0010517125803979801,0.00022805946883288126,0.0072376850960384825,0.4378890965770604,8.666880744117e-05
45,0.0010520176564452694,0.00022812893809166082,0.007245628143388431,0.44068611670277685,8.667558508718139e-05
46,0.0010523296916897797,0.00022819999256938815,0.007253580492865682,0.44340863911111966,8.66825932519306e-05
47,0.0010526484841730161,0.00022827258636657233,0.007261542107889719,0.4460626128295264,8.668982745867646e-05
48,0.0010529738389749488,0.00022834667518403781,0.007269512957025534,0.44865335760369807,8.66972832285526e-05
49,0.0010533055680999872,0.0002284222162970279,0.0072774930132766275,0.45118564652170157,8.67049560981222e-05
50,0.001053643490332552,0.00022849916852238578,0.007285482253492437,0.45366377587738,8.671284163412892e-05
51,0.001053988768730467,0.0002285777967166327,0.0072934807484909,0.4560775426759008,8.672098267172003e-05
52,0.001054341211535012,0.00022865805730928163,0.0073014884721284866,0.45843175718003004,8.672937487065103e-05
53,0.0010547006327189825,0.00022873990803289748,0.007309505402000947,0.4607307520233485,8.67380138622075e-05
54,0.001055066851960511,0.00022882330791716774,0.0073175315189627065,0.4629784410122217,8.674689526686212e-05
55,0.0010554396945860417,0.0002289082172759516,0.007325566806719091,0.4651783694144649,8.675601470951042e-05
56,0.0010558189914886347,0.00022899459768871392,0.0073336112514788224,0.4673337571371247,8.676536783256335e-05
57,0.0010562045790267823,0.0002290824119775237,0.007341664841656625,0.46944753593883193,8.67749503071456e-05
58,0.0010565962989080764,0.0002291716241806045,0.007349727567617708,0.4715223816167238,8.678475784262283e-05
59,0.0010569939980613473,0.00022926219952326075,0.0073577994214573846,0.4735607419428347,8.679478619465674e-05
60,0.0010573975285002933,0.00022935410438686748,0.0073658803968103,0.4755648609915395,8.680503117196558e-05
61,0.001057811465340226,0.0002294483806462229,0.007373970699498208,0.47750320643270855,8.681566989922412e-05
62,0.0010582356037654034,0.00022954498180681077,0.007382070304740665,0.47938080620728607,8.682669895694462e-05
63,0.0010586697404915977,0.00022964386172168904,0.007390179191394791,0.4812021836334934,8.683811463357632e-05
64,0.0010591136742354379,0.0002297449746982549,0.007398297341490694,0.4829714191681029,8.684991296256025e-05
65,0.0010595672061123919,0.0002298482755887731,0.0074064247398362175,0.48469220337955815,8.686208975639562e-05
66,0.001060030139971489,0.00022995371986651102,0.0074145613736793054,0.48636788254312074,8.687464063787301e-05
67,0.0010605022826740875,0.00023006126368914308,0.00742270723241849,0.48800149801839904,8.68875610686362e-05
68,0.0010609834443232541,0.00023017086395091927,0.007430862307353714,0.4895958203678907,8.690084637523639e-05
69,0.001061473438449649,0.00023028247832493893,0.007439026591471131,0.4911533790116061,8.691449177284281e-05
70,0.001061972082159191,0.0002303960652967302,0.007447200079256604,0.4926764880796746,8.692849238676987e-05
71,0.001062486511644091,0.00023051325037970878,0.00745538296263045,0.494135599670771,8.694315475662876e-05
72,0.0010630164580470714,0.00023063397260516259,0.007463575215584003,0.4955362773942852,8.695847662536774e-05
73,0.001063561644962343,0.00023075816928531695,0.007471776816206826,0.49688347186521326,8.697445472211727e-05
74,0.0010641217900007529,0.00023088577636927967,0.007479987746127643,0.4981816015841126,8.699108484697387e-05
75,0.0010646966062107272,0.00023101672876617776,0.0074882079900432915,0.4994346215749504,8.700836195305916e-05
76,0.0010652858033635185,0.0002311509606374239,0.007496437535320193,0.500646081848271,8.702628022543668e-05
77,0.0010658890891113925,0.00023128840566007908,0.00750467637165579,0.5018191773750692,8.704483315657677e-05
78,0.001066506170027366,0.00023142899726327318,0.007512924490789842,0.502956790950847,8.706401361815267e-05
79,0.001067136752534966,0.0002315726688396108,0.007521181886257296,0.5040615300833796,8.708381392902931e-05
80,0.0010677805437362394,0.0002317193539334366,0.007529448553176026,0.5051357588391824,8.710422591937343e-05
81,0.0010684385658105275,0.0002318692857035732,0.007537724507383587,0.5061784960215994,8.712530405531968e-05
82,0.001069110497039253,0.000232022391150005,0.007546009744429072,0.5071920539336926,8.714703895684784e-05
83,0.001069796016662995,0.00023217859748745156,0.007554304261234423,0.5081785315501431,8.716942073364446e-05
84,0.0010704948056627906,0.0002323378323230059,0.007562608055938172,0.5091398384056375,8.71924390514806e-05
85,0.0010712065474507361,0.0002325000238131506,0.007570921127760016,0.5100777153803755,8.721608319432755e-05
86,0.001071930928477191,0.00023266510080181287,0.007579243476883093,0.5109937528366317,8.724034212227578e-05
87,0.0010726676387615114,0.000232832992941035,0.007587575104351346,0.511889406487014,8.726520452535505e-05
88,0.0010734163723528558,0.00023300363079574823,0.007595916011979779,0.5127660113146417,8.729065887338008e-05
89,0.0010741768277272056,0.0002331769459340473,0.007604266202275785,0.5136247938154809,8.731669346196587e-05
90,0.0010749487081263525,0.00023335287100427417,0.007612625678369995,0.5144668827915838,8.734329645487189e-05
91,0.0010757317230425639,0.00023353134007324822,0.0076209944439670895,0.5152933169925498,8.737045598517331e-05
92,0.0010765255860236101,0.00023371228812592241,0.007629372503267387,0.5161050575313875,8.739816006492402e-05
93,0.0010773300161032006,0.00023389565139128135,0.0076377598609321026,0.5169029932979712,8.74263966809518e-05
94,0.0010781447379578674,0.00023408136737803706,0.007646156522041034,0.5176879476338758,8.745515382427361e-05
95,0.001078969482028953,0.0002342693749023948,0.007654562492054916,0.5184606842832216,8.74844195167225e-05
96,0.001079803984613318,0.00023445961410871094,0.0076629777767818754,0.5192219127088431,8.751418183496224e-05
97,0.0010806479879260891,0.00023465202648379708,0.007671402382347461,0.5199722928508347,8.754442893206149e-05
98,0.0010815012401384828,0.00023484655486556114,0.007679836315167829,0.5207124393941066,8.757514905679385e-05
99,0.0010823634953934839,0.00023504314344661675,0.007688279581925691,0.5214429256027113,8.760633057082413e-05
100,0.0010832345138019146,0.0002352417377734368,0.007696732189548709,0.5221642867711227,8.763796196393458e-05
101,0.0010841140627798514,0.00023544228505135043,0.007705194145200359,0.5228770216848289,8.76700319417254e-05
102,0.001085001914224521,0.0002356447335007565,0.007713665456240857,0.5235815988848623,8.770252928545403e-05
103,0.0010858978458947678,0.00023584903267191923,0.007722146130222635,0.5242784573958571,8.773544293983019e-05
104,0.0010868016413498247,0.0002360551334311041,0.00773063617487601,0.5249680090313809,8.776876202180429e-05
105,0.001087713089878064,0.00023626298794443662,0.007739135598096203,0.5256506404861285,8.780247582805394e-05
106,0.0010886319864171381,0.00023647254965980557,0.0077476444079315485,0.5263267152375575,8.783657384127832e-05
107,0.0010895581314667878,0.0002366837732870996,0.007756162612572789,0.5269965752768657,8.787104573540332e-05
108,0.0010904913309954614,0.00023689661477703828,0.007764690220343324,0.5276605426868858,8.790588137979378e-05
109,0.0010914313963417792,0.00023711103129883145,0.007773227239690325,0.5283189210824369,8.794107084256196e-05
110,0.001092378144111767,0.0002373269812168771,0.007781773679176624,0.5289719969269099,8.797660439305614e-05
111,0.0010933313969622865,0.0002375444242696025,0.007790329547479013,0.5296200398301654,8.801247255380312e-05
112,0.001094290981638631,0.00023776332112201274,0.007798894853369414,0.530263305566901,8.804866599720105e-05
113,0.0010952567298296682,0.00023798363356086402,0.007807469605715035,0.5309020360762801,8.808517560024429e-05
114,0.0010962284780555878,0.0002382053244692055,0.007816053813472659,0.5315364603935081,8.81219924444541e-05
115,0.0010972060675547496,0.00023842835780071592,0.007824647485683405,0.5321667955067071,8.815910781532208e-05
116,0.0010981893441700929,0.0002386526985539403,0.0078332506314679,0.5327932471459905,8.819651320131819e-05
117,0.0010991781582355158,0.00023887831274651923,0.007841863260021838,0.5334160105109274,8.823420029251141e-05
118,0.0011001723644625816,0.0002391051673894918,0.007850485380611892,0.5340352709419447,8.82721609788474e-05
119,0.0011011718218278668,0.00023933323046174354,0.007859117002571928,0.5346512045406578,8.831038734812307e-05
120,0.0011021763934612227,0.00023956247088466172,0.00786775813529952,0.5352639787436138,8.834887168369559e-05
121,0.0011031859469169375,0.00023979285858416615,0.007876408788254926,0.5358737525076179,8.838760648392448e-05
122,0.001104200353243729,0.0002400243642786425,0.00788506897095333,0.5364806775516427,8.842658441227032e-05
123,0.001105219487317871,0.00024025695955509532,0.007893738692964662,0.537084898406364,8.84657983196965e-05
124,0.0011062432277371428,0.0002404906168450927,0.00790241796391103,0.5376865528384855,8.850524124162559e-05
125,0.001107271456716587,0.00024072530940112002,0.007911106793464334,0.5382857722451184,8.854490639477186e-05
126,0.0011083040599861743,0.00024096101127336707,0.007919805191344054,0.5388826820206608,8.8584787173871e-05
127,0.0011093409266904654,0.00024119769728696733,0.007928513167315184,0.5394774018984019,8.862487714832641e-05
128,0.0011103819492903366,0.0002414353430197056,0.00793723073118632,0.5400700462688657,8.866517005878938e-05
129,0.0011114270234668228,0.00024167392478020584,0.007945957892807866,0.5406607244767334,8.870565981368905e-05
130,0.0011124760480271192,0.0002419134195866084,0.00795469466207038,0.5412495410980147,8.874634048572617e-05
131,0.0011135289248978143,0.0002421538051651595,0.007963441048903463,0.5418365961278607,8.878720631329363e-05
132,0.0011145855588169642,0.00024239505988004337,0.00797219706327314,0.5424219854059165,8.882825168423087e-05
133,0.001115645857381571,0.00024263716274434505,0.007980962715181238,0.5430058007286422,8.886947114012194e-05
134,0.0011167097309623599,0.00024288009340071813,0.007989738014664106,0.5435881300615912,8.891085937275845e-05
135,0.0011177770926207619,0.0002431238321025529,0.00799852297179144,0.5441690577383387,8.895241122061791e-05
136,0.0011188478580280924,0.00024336835969564175,0.00800731759666516,0.5447486646470387,8.899412166536499e-05
137,0.0011199219453869032,0.00024361365760033833,0.008016121899418372,0.5453270284055028,8.90359858283817e-05
138,0.0011209992753544863,0.0002438597077942043,0.008024935890214394,0.545904223525622,8.90779989673324e-05
139,0.001122079770968504,0.0002441064927951384,0.008033759579245832,0.5464803215678864,8.91201564727684e-05
140,0.0011231633575747115,0.00024435399564498025,0.008042592976733721,0.547055391286697,8.916245386477657e-05
141,0.001124249962655956,0.0002446021998705607,0.008051436092926197,0.5476294988469874,8.920488678377324e-05
142,0.0011253395159368069,0.00024485108950770396,0.008060288938098627,0.5482027078152364,8.924745099736994e-05
143,0.0011264319492462875,0.0002451006490699787,0.008069151522552529,0.5487750793376592,8.929014239301426e-05
144,0.0011275271964535866,0.00024535086353411403,0.008078023856614894,0.5493466722546478,8.933295697484475e-05
145,0.0011286251934056763,0.0002456017183258474,0.00808690595063755,0.5499175432087305,8.937589086060347e-05
146,0.0011297258778667925,0.000245853199306195,0.008095797814996567,0.5504877467464799,8.941894027860762e-05
147,0.0011308291894597368,0.00024610529275813565,0.00810469946009169,0.5510573354147641,8.946210156478157e-05
148,0.0011319350696089546,0.0002463579853736969,0.00811361089634581,0.5516263598517068,8.950537115974998e-05
149,0.0011330434614853463,0.0002466112642414348,0.008122532134204458,0.5521948688726965,8.954874560599294e-05
150,0.0011341543099527677,0.00024686511683429655,0.008131463184135332,0.5527629095517576,8.95922215450633e-05
151,0.0011352675613581745,0.00024711953096174854,0.008140404056627054,0.5533305274194278,8.963579570559208e-05
152,0.0011363831637809163,0.00024737449482682477,0.008149354762190255,0.5538977663058932,8.967946491821705e-05
153,0.0011375010668430573,0.0002476299969828651,0.008158315311356466,0.5544646685185999,8.972322610470979e-05
154,0.0011386212216621797,0.0002478860263228074,0.008167285714677735,0.5550312749078168,8.976707627544163e-05
155,0.0011397435808056596,0.0002481425720688137,0.00817626598272627,0.5555976249288233,8.981101252691126e-05
156,0.001140868098246373,0.00024839962376222097,0.008185256126094102,0.5561637567009271,8.985503203933349e-05
157,0.0011419947293197926,0.000248657171253807,0.00819425615539276,0.5567297070634992,8.989913207428865e-05
158,0.001143123430682432,0.0002489152046943617,0.008203266081252963,0.5572955116292031,8.994330997243157e-05
159,0.0011442541602715987,0.0002491737145255561,0.008212285914324342,0.5578612048345813,8.998756315125964e-05
160,0.0011453868772664175,0.00024943269147109843,0.008221315665275154,0.5584268199881534,9.003188910293909e-05
161,0.0011465215422254817,0.00024969212656827255,0.008230355344792904,0.5589923891850153,9.007628540248021e-05
162,0.0011476581167093464,0.0002499520110816951,0.008239404963582393,0.5595579436057817,9.012074968566236e-05
163,0.0011487965634103538,0.0002502123365330544,0.008248464532366316,0.5601235134340368,9.016527965673078e-05
164,0.0011499368461183705,0.0002504730946933363,0.008257534061885034,0.5606891278958042,9.020987308644634e-05
165,0.0011510789296876082,0.0002507342775752956,0.008266613562896362,0.561254815297156,9.025452781018818e-05
166,0.0011522227800044988,0.00025099587742616656,0.008275703046175373,0.5618206030600646,9.029924172610866e-05
167,0.0011533683639565863,0.00025125788672060434,0.008284802522514206,0.5623865177565909,9.034401279333903e-05
168,0.0011545156494024071,0.00025152029815385016,0.008293912002721884,0.5629525851415014,9.038883903024505e-05
169,0.0011556646051423239,0.0002517831046351131,0.00830303149762414,0.5635188301833977,9.043371851273121e-05
170,0.0011568152008902856,0.0002520462992811619,0.008312161018063261,0.5640852770944369,9.047864937259259e-05
171,0.0011579670371209211,0.0002523097907429322,0.008321300573057099,0.5646522225459034,9.052360812892989e-05
172,0.0011591201130448775,0.0002525735788696547,0.00833045017361617,0.5652196685444786,9.056859467188909e-05
173,0.001160274427922892,0.0002528376635219728,0.008339609830763288,0.5657876170604351,9.061360889470246e-05
174,0.001161429981064319,0.0002531020445716086,0.008348779555533566,0.5663560700287725,9.065865069359591e-05
175,0.001162586771825709,0.00025336672190104067,0.008357959358974432,0.566925029350312,9.070371996769949e-05
176,0.001163744799609436,0.00025363169540319237,0.008367149252145628,0.5674944968927521,9.0748816618961e-05
177,0.0011649040638623748,0.00025389696498113193,0.00837634924611922,0.5680644744916867,9.079394055206269e-05
178,0.0011660645640746224,0.00025416253054778214,0.00838555935197961,0.5686349639515871,9.083909167434071e-05
179,0.0011672262997782638,0.0002544283920256406,0.008394779580823531,0.5692059670467493,9.088426989570742e-05
180,0.0011683892705461804,0.00025469454934650917,0.008404009943760074,0.5697774855222086,9.092947512857628e-05
