Time (hr),Plant Height (m),Leaf Area (m²),Number of Leaves (unitless),Spikelet Count (unitless),Fruit Biomass (kg)
0,0.0010344827586206897,0.00022413793103448276,0.006896551724137931,0.3448275862068966,8.620689655172413e-05
1,0.00103511859907839,0.00022428257961931234,0.006904132507520779,0.34554230649359435,8.622767561523246e-05
2,0.0010357548301333517,0.00022442732149814942,0.006911721617835596,0.3462585077629915,8.624845968458999e-05
3,0.001036391452025249,0.0002245721567310939,0.006919319064215774,0.34697619308215305,8.626924876100138e-05
4,0.0010370284649939034,0.00022471708537828431,0.006926924855804697,0.34769536552448876,8.629004284567158e-05
5,0.0010376658692792824,0.00022486210749989783,0.006934539001755747,0.34841602816976625,8.631084193980582e-05
6,0.001038303665121501,0.00022500722315615035,0.006942161511232316,0.34913818410412395,8.633164604460964e-05
7,0.0010389418527608214,0.00022515243240729639,0.00694979239340782,0.3498618364200845,8.635245516128884e-05
8,0.0010395804324376523,0.00022529773531362922,0.006957431657465707,0.35058698821656775,8.637326929104955e-05
9,0.00104021940439255,0.00022544313193548088,0.006965079312599467,0.3513136425989041,8.639408843509815e-05
10,0.0010408587688662178,0.00022558862233322216,0.006972735368012646,0.35204180267884755,8.641491259464134e-05
11,0.0010414353597702855,0.00022571983361323927,0.006980398897977158,0.3528945468990197,8.643273546841009e-05
12,0.0010419603400937478,0.0002258393047815016,0.006988069857387915,0.3538792073906139,8.644821105026869e-05
13,0.0010424426487994141,0.00022594906909090428,0.0069957482162933985,0.3550012765256802,8.64618316861725e-05
14,0.0010428893815798558,0.00022605074058083238,0.007003433957107068,0.35626478772540743,8.647396770274283e-05
15,0.001043306179441734,0.000226145602430407,0.007011127072321995,0.3576726229456318,8.648489976063115e-05
16,0.0010436975546127365,0.00022623468107229848,0.007018827562604958,0.35922676471203857,8.64948429370466e-05
17,0.0010440671461487674,0.00022631880432502876,0.007026535435203888,0.36092850283168515,8.650396409973919e-05
18,0.001044417915354443,0.00022639864583976678,0.007034250702621759,0.3627786031697413,8.651239434429555e-05
19,0.0010447522940005558,0.00022647475881263797,0.007041973381517765,0.36477744463599515,8.65202379221744e-05
20,0.0010450722967852055,0.00022654760156504288,0.007049703491801307,0.36692512969647106,8.652757869964382e-05
21,0.001045383685893219,0.00022661848524970662,0.007057441390571526,0.3691766481754952,8.653462270486591e-05
22,0.0010456873675889703,0.00022668761602540023,0.007065187113106401,0.37152971881202607,8.654140456316999e-05
23,0.0010459841159323703,0.00022675516997686316,0.007072940693535649,0.3739822317613134,8.654795337134882e-05
24,0.001046274596814583,0.00022682129858241085,0.007080702164816368,0.3765322475400468,8.655429378608533e-05
25,0.0010465593868596015,0.0002268861330136556,0.007088471558736469,0.37917799310534733,8.656044686245189e-05
26,0.0010468389884337392,0.00022694978754987175,0.007096248905937154,0.38191785609999285,8.656643070715618e-05
27,0.001047113841673202,0.0002270123623140416,0.0071040342359481035,0.38475037799354894,8.657226099278168e-05
28,0.0010473843342041944,0.00022707394548400256,0.007111827577230797,0.3876742466318525,8.657795136652844e-05
29,0.001047650809060676,0.0002271346150935968,0.007119628957226659,0.39068828855133125,8.658351377802637e-05
30,0.0010479135711818875,0.00022719444051074649,0.007127438402407677,0.393791461302677,8.658895874445022e-05
31,0.00104817685789465,0.000227254386079795,0.0071352564472743595,0.39691111769038273,8.6594418301469e-05
32,0.0010484406413425367,0.00022731444546516166,0.007143083097635821,0.400047797578831,8.659989158686418e-05
33,0.0010487048961665523,0.00022737461289935325,0.007150918359644793,0.4032020052762302,8.660537781459932e-05
34,0.0010489695992157207,0.00022743488311712995,0.007158762239756587,0.40637421410366487,8.66108762661086e-05
35,0.001049234729298395,0.0002274952512989343,0.0071666147446941735,0.4095648702815069,8.661638628279518e-05
36,0.0010495002669676028,0.00022755571302206275,0.007174475881418321,0.412774396251944,8.662190725954342e-05
37,0.0010497661943349894,0.0002276162642183423,0.007182345657101932,0.4160031935330004,8.66274386390848e-05
38,0.0010500324949089057,0.00022767690113730007,0.007190224079107897,0.4192516451811529,8.663297990708633e-05
39,0.001050299153452978,0.00022773762031399165,0.007198111154969898,0.4225201179252637,8.663853058785326e-05
40,0.0010505661558621294,0.00022779841854079952,0.0072060068923757055,0.42580896402315394,8.664409024055578e-05
41,0.0010508412333363917,0.0002278610555999233,0.0072139122288203406,0.42897992079231767,8.664990189546292e-05
42,0.001051124148859578,0.00022792547762193015,0.007221827085033933,0.4320440128623108,8.66559614805085e-05
43,0.0010514146721598463,0.00022799163227041084,0.007229751393389978,0.43501090266639536,8.666226477495537e-05
44,0.0010517125799358153,0.00022805946879352653,0.0072376850960384825,0.4378890970147631,8.666880744843544e-05
45,0.0010520176559802616,0.00022812893805223742,0.007245628143388431,0.4406861171488998,8.667558509449104e-05
46,0.0010523296912219235,0.00022819999252988603,0.007253580492865682,0.44340863956550985,8.668259325928444e-05
47,0.001052648483702308,0.00022827258632698218,0.007261542107889719,0.44606261329203967,8.668982746607447e-05
48,0.0010529738385013868,0.00022834667514435095,0.007269512957025534,0.4486533580741985,8.669728323599474e-05
49,0.0010533055676235712,0.00022842221625723626,0.0072774930132766275,0.4511856470000609,8.670495610560838e-05
50,0.001053643489853283,0.00022849916848248185,0.007285482253492437,0.4536637763634771,8.671284164165906e-05
51,0.001053988768248336,0.0002285777966766075,0.0072934807484909,0.45607754316959614,8.672098267929419e-05
52,0.0010543412110500122,0.0002286580572691267,0.0073014884721284866,0.4584317576811919,8.672937487826922e-05
53,0.001054700632231108,0.00022873990799260495,0.007309505402000947,0.46073075253185214,8.673801386986974e-05
54,0.0010550668514697577,0.00022882330787673028,0.0073175315189627065,0.46297844152794904,8.674689527456839e-05
55,0.0010554396940924068,0.00022890821723536235,0.007325566806719091,0.46517836993730394,8.675601471726069e-05
56,0.0010558189909921165,0.00022899459764796643,0.0073336112514788224,0.46733375766696916,8.676536784035757e-05
57,0.0010562045785273806,0.000229082411936612,0.007341664841656625,0.4694475364755808,8.677495031498371e-05
58,0.0010565962984057915,0.00022917162413952296,0.007349727567617708,0.471522382160281,8.678475785050474e-05
59,0.0010569939975561809,0.00022926219948200417,0.0073577994214573846,0.47356074249310876,8.679478620258236e-05
60,0.0010573975279922474,0.00022935410434543098,0.0073658803968103,0.47556486154844324,8.680503117993481e-05
61,0.0010578114648292706,0.00022944838060459568,0.007373970699498208,0.47750320699609533,8.681566990723732e-05
62,0.0010582356032515106,0.00022954498176498266,0.007382070304740665,0.4793808067770175,8.682669896500214e-05
63,0.0010586697399747416,0.00022964386167965035,0.007390179191394791,0.4812021842094387,8.683811464167847e-05
64,0.0010591136737155946,0.00022974497465599647,0.007398297341490694,0.4829714197501384,8.684991297070732e-05
65,0.001059567205589539,0.00022984827554628625,0.0074064247398362175,0.4846922039675667,8.686208976458784e-05
66,0.0010600301394456063,0.00022995371982378754,0.0074145613736793054,0.4863678831369911,8.687464064611062e-05
67,0.001060502282145156,0.00023006126364617517,0.00742270723241849,0.4880014986180256,8.688756107691939e-05
68,0.0010609834437912565,0.00023017086390769958,0.007430862307353714,0.4895958209731731,8.690084638356536e-05
69,0.0010614734379145695,0.00023028247828146053,0.007439026591471131,0.49115337962244887,8.691449178121772e-05
70,0.0010619720816210149,0.00023039606525298648,0.007447200079256604,0.49267648869598674,8.692849239519086e-05
71,0.0010624865111027607,0.00023051325033568505,0.00745538296263045,0.494135600292401,8.694315476509658e-05
72,0.0010630164575025315,0.00023063397256084468,0.007463575215584003,0.4955362780210916,8.695847663388314e-05
73,0.0010635616444145412,0.0002307581692406914,0.007471776816206826,0.4968834724970636,8.697445473068092e-05
74,0.0010641217894496397,0.0002308857763243336,0.007479987746127643,0.4981816022208827,8.699108485558642e-05
75,0.0010646966056562556,0.0002310167287208989,0.0074882079900432915,0.49943462221652357,8.700836196172121e-05
76,0.0010652858028056442,0.00023115096059180053,0.007496437535320193,0.5006460824945376,8.70262802341488e-05
77,0.0010658890885500735,0.0002312884056141001,0.00750467637165579,0.5018191780259259,8.70448331653395e-05
78,0.0010665061694625627,0.000231428997216928,0.007512924490789842,0.5029567916061963,8.706401362696649e-05
79,0.0010671367519666413,0.00023157266879288938,0.007521181886257296,0.5040615307431295,8.708381393789468e-05
80,0.001067780543164358,0.00023171935388632936,0.007529448553176026,0.505135759503246,8.710422592829079e-05
81,0.0010684385652350496,0.00023186928565606973,0.007537724507383587,0.5061784966898871,8.712530406428951e-05
82,0.001069110496460141,0.0002320223911020954,0.007546009744429072,0.5071920546061202,8.714703896587062e-05
83,0.0010697960160802138,0.00023217859743912642,0.007554304261234423,0.5081785322266308,8.716942074272063e-05
84,0.001070494805076307,0.0002323378322742564,0.007562608055938172,0.5091398390861097,8.719243906061056e-05
85,0.001071206546860519,0.00023250002376396835,0.007570921127760016,0.5100777160647608,8.721608320351167e-05
86,0.0010719309278832113,0.0002326651007521899,0.007579243476883093,0.5109937535248622,8.724034213151439e-05
87,0.0010726676381637421,0.00023283299289096387,0.007587575104351346,0.5118894071790251,8.726520453464847e-05
88,0.001073416371751272,0.00023300363074522186,0.007595916011979779,0.5127660120103722,8.729065888272858e-05
89,0.0010741768271217836,0.00023317694588305908,0.007604266202275785,0.5136247945148723,8.731669347136974e-05
90,0.001074948707517071,0.00023335287095281788,0.007612625678369995,0.5144668834945808,8.734329646433135e-05
91,0.0010757317224294029,0.000233531340021318,0.0076209944439670895,0.5152933176990993,8.737045599468857e-05
92,0.0010765255854065512,0.00023371228807351276,0.007629372503267387,0.5161050582414389,8.739816007449526e-05
93,0.0010773300154822269,0.00023389565133838714,0.0076377598609321026,0.5169029940114765,8.74263966905792e-05
94,0.0010781447373329634,0.0002340813673246535,0.007646156522041034,0.5176879483507889,8.745515383395731e-05
95,0.0010789694814001044,0.00023426937484851738,0.007654562492054916,0.5184606850034984,8.748441952646263e-05
96,0.0010798039839805121,0.0002344596140543355,0.0076629777767818754,0.5192219134324414,8.751418184475893e-05
97,0.0010806479872893147,0.00023465202642891972,0.007671402382347461,0.5199722935777141,8.754442894191482e-05
98,0.0010815012394977293,0.00023484655481017828,0.007679836315167829,0.5207124401242286,8.75751490667039e-05
99,0.001082363494748742,0.00023504314339072504,0.007688279581925691,0.5214429263360386,8.760633058079096e-05
100,0.0010832345131531762,0.00023524173771703315,0.007696732189548709,0.5221642875076198,8.763796197395823e-05
101,0.0010841140621271092,0.000235442284994432,0.007705194145200359,0.5228770224244615,8.767003195180591e-05
102,0.001085001913567769,0.0002356447334433207,0.007713665456240857,0.5235815996275978,8.770252929559143e-05
103,0.0010858978452340004,0.00023584903261396364,0.007722146130222635,0.5242784581416637,8.773544295002448e-05
104,0.0010868016406850377,0.00023605513337262652,0.00773063617487601,0.5249680097802284,8.776876203205546e-05
105,0.0010877130892092536,0.00023626298788543507,0.007739135598096203,0.5256506412379879,8.780247583836198e-05
106,0.0010886319857443016,0.00023647254960027823,0.0077476444079315485,0.5263267159924006,8.78365738516432e-05
107,0.001089558130789923,0.0002366837732270449,0.007756162612572789,0.5269965760346654,8.787104574582501e-05
108,0.0010904913303145668,0.00023689661471645477,0.007764690220343324,0.527660543447616,8.790588139027223e-05
109,0.0010914313956568542,0.00023711103123771782,0.007773227239690325,0.5283189218460727,8.794107085309712e-05
110,0.0010923781434228114,0.00023732698115523223,0.007781773679176624,0.5289719976934267,8.797660440364794e-05
111,0.001093331396269301,0.0002375444242074254,0.007790329547479013,0.52962004059954,8.80124725644515e-05
112,0.0010942909809416165,0.00023776332105930256,0.007798894853369414,0.530263306339111,8.804866600790594e-05
113,0.0010952567291286264,0.00023798363349762007,0.007807469605715035,0.5309020368513037,8.808517561100558e-05
114,0.0010962284773505207,0.0002382053244054272,0.007816053813472659,0.5315364611713242,8.812199245527171e-05
115,0.0010972060668456597,0.00023842835773640279,0.007824647485683405,0.5321667962872956,8.815910782619592e-05
116,0.0010981893434569832,0.000238652698489092,0.0078332506314679,0.5327932479293317,8.819651321224815e-05
117,0.0010991781575183897,0.00023887831268113553,0.007841863260021838,0.5334160112970022,8.82342003034974e-05
118,0.0011001723637414432,0.00023910516732357251,0.007850485380611892,0.534035271730735,8.827216098988929e-05
119,0.0011011718211027199,0.00023933323039528864,0.007859117002571928,0.5346512053321458,8.831038735922075e-05
120,0.001102176392732072,0.00023956247081767122,0.00786775813529952,0.5352639795377823,8.834887169484893e-05
121,0.0011031859461837878,0.00023979285851664022,0.007876408788254926,0.5358737533044503,8.838760649513335e-05
122,0.0011042003525065856,0.00024002436421058135,0.00788506897095333,0.536480678351123,8.84265844235346e-05
123,0.0011052194865767391,0.00024025695948649923,0.007893738692964662,0.5370848992084766,8.846579833101604e-05
124,0.0011062432269920283,0.00024049061677596203,0.00790241796391103,0.5376865536432154,8.850524125300026e-05
125,0.0011072714559674957,0.00024072530933145524,0.007911106793464334,0.5382857730524508,8.854490640620153e-05
126,0.0011083040592331126,0.00024096101120316864,0.007919805191344054,0.5388826828305817,8.858478718535552e-05
127,0.0011093409259334396,0.0002411976972162358,0.007928513167315184,0.5394774027108975,8.862487715986563e-05
128,0.0011103819485293533,0.00024143534294844159,0.00793723073118632,0.5400700470839228,8.866517007038314e-05
129,0.0011114270227018887,0.00024167392470841,0.007945957892807866,0.5406607252943392,8.870565982533722e-05
130,0.0011124760472582414,0.00024191341951428145,0.00795469466207038,0.5412495419181566,8.874634049742857e-05
131,0.001113528924125,0.00024215380509230223,0.007963441048903463,0.5418365969505266,8.878720632505012e-05
132,0.0011145855580402208,0.00024239505980665655,0.00797219706327314,0.5424219862310945,8.88282516960413e-05
133,0.001115645856600906,0.00024263716267042954,0.007980962715181238,0.543005801556321,8.886947115198615e-05
134,0.0011167097301777807,0.00024288009332627486,0.007989738014664106,0.5435881308917598,8.891085938467627e-05
135,0.001117777091832276,0.00024312383202758277,0.00799852297179144,0.5441690585709864,8.895241123258919e-05
136,0.0011188478572357078,0.00024336835962014577,0.00800731759666516,0.5447486654821551,8.899412167738955e-05
137,0.0011199219445906278,0.00024361365752431746,0.008016121899418372,0.5453270292430777,8.903598584045939e-05
138,0.0011209992745543282,0.0002438597077176596,0.008024935890214394,0.5459042243656456,8.907799897946304e-05
139,0.0011220797701644713,0.00024410649271807092,0.008033759579245832,0.5464803224103492,8.912015648495184e-05
140,0.0011231633567668122,0.00024435399556739106,0.008042592976733721,0.5470553921315897,8.916245387701263e-05
141,0.0011242499618441984,0.00024460219979245093,0.008051436092926197,0.5476294996943011,8.920488679606176e-05
142,0.0011253395151211993,0.00024485108942907475,0.008060288938098627,0.5482027086649622,8.924745100971076e-05
143,0.0011264319484268384,0.0002451006489908312,0.008069151522552529,0.5487750801897888,8.929014240540722e-05
144,0.0011275271956303042,0.0002453508634544494,0.008078023856614894,0.549346673109173,8.933295698728967e-05
145,0.001128625192578569,0.0002456017182456668,0.00808690595063755,0.5499175440656432,8.937589087310019e-05
146,0.0011297258770358689,0.00024585319922549974,0.008095797814996567,0.5504877476057723,8.941894029115598e-05
147,0.0011308291886250052,0.0002461052926769269,0.00810469946009169,0.5510573362764287,8.946210157738139e-05
148,0.0011319350687704235,0.0002463579852919759,0.00811361089634581,0.5516263607157363,8.950537117240109e-05
149,0.0011330434606430242,0.0002466112641592028,0.008122532134204458,0.5521948697390838,8.954874561869517e-05
150,0.001134154309106663,0.0002468651167515548,0.008131463184135332,0.5527629104204957,8.959222155781648e-05
151,0.001135267560508296,0.00024711953087849835,0.008140404056627054,0.5533305282905102,8.963579571839603e-05
152,0.0011363831629272723,0.00024737449474306744,0.008149354762190255,0.5538977671793133,8.967946493107162e-05
153,0.0011375010659856566,0.0002476299968986019,0.008158315311356466,0.5544646693943514,8.972322611761482e-05
154,0.001138621220801031,0.0002478860262380396,0.008167285714677735,0.5550312757858934,8.976707628839694e-05
155,0.001139743579940771,0.00024814257198354264,0.00817626598272627,0.5555976258092191,8.981101253991668e-05
156,0.0011408680973777534,0.000248399623676448,0.008185256126094102,0.5561637575836363,8.985503205238889e-05
157,0.0011419947284474503,0.0002486571711675334,0.00819425615539276,0.5567297079485163,8.989913208739384e-05
158,0.0011431234298063754,0.00024891520460758884,0.008203266081252963,0.5572955125165225,8.994330998558637e-05
159,0.0011442541593918365,0.0002491737144382853,0.008212285914324342,0.5578612057241978,8.99875631644639e-05
160,0.0011453868763829581,0.0002494326913833309,0.008221315665275154,0.5584268208800617,9.003188911619265e-05
161,0.0011465215413383335,0.0002496921264800097,0.008230355344792904,0.5589923900792105,9.00762854157829e-05
162,0.0011476581158185177,0.0002499520109929383,0.008239404963582393,0.5595579445022589,9.012074969901401e-05
163,0.0011487965625158532,0.000250212336443805,0.008248464532366316,0.5601235143327913,9.016527967013125e-05
164,0.0011499368452202062,0.0002504730946035956,0.008257534061885034,0.5606891287968313,9.020987309989546e-05
165,0.0011510789287857886,0.00025073427748506494,0.008266613562896362,0.5612548162004515,9.02545278236858e-05
166,0.0011522227790990319,0.0002509958773354473,0.008275703046175373,0.561820603965624,9.02992417396546e-05
167,0.0011533683630474806,0.0002512578866293978,0.008284802522514206,0.56238651866441,9.034401280693315e-05
168,0.0011545156484896707,0.00025152029806215767,0.008293912002721884,0.5629525860515763,9.038883904388719e-05
169,0.001155664604225965,0.00025178310454293605,0.00830303149762414,0.5635188310957243,9.04337185264212e-05
170,0.0011568151999703125,0.0002520462991885015,0.008312161018063261,0.5640852780090115,9.047864938633028e-05
171,0.0011579670361973428,0.00025230979064979015,0.008321300573057099,0.5646522234627229,9.052360814271513e-05
172,0.0011591201121177032,0.0002525735787760324,0.00833045017361617,0.5652196694635401,9.056859468572169e-05
173,0.0011602744269921307,0.0002528376634278717,0.008339609830763288,0.5657876179817356,9.061360890858226e-05
174,0.0011614299801299794,0.0002531020444770303,0.008348779555533566,0.5663560709523092,9.065865070752273e-05
175,0.0011625867708877997,0.00025336672180598655,0.008357959358974432,0.5669250302760821,9.070371998167317e-05
176,0.0011637447986679657,0.0002536316953076639,0.008367149252145628,0.5674944978207529,9.074881663298139e-05
177,0.0011649040629173521,0.00025389696488513054,0.00837634924611922,0.5680644754219155,9.079394056612963e-05
178,0.0011660645631260554,0.00025416253045130923,0.00838555935197961,0.5686349648840413,9.083909168845405e-05
179,0.0011672262988261608,0.00025442839192869757,0.008394779580823531,0.5692059679814264,9.088426990986699e-05
180,0.0011683892695905495,0.0002546945492490974,0.008404009943760074,0.5697774864591062,9.092947514278193e-05
