Time (hr),Plant Height (m),Leaf Area (m²),Number of Leaves (unitless),Spikelet Count (unitless),Fruit Biomass (kg)
0,0.0010344827586206897,0.00022413793103448276,0.006896551724137931,0.3448275862068966,8.620689655172413e-05
1,0.0010351185990809641,0.00022428257961986482,0.006904132507520779,0.3455423064934684,8.622767561522784e-05
2,0.001035754830138503,0.00022442732149925506,0.006911721617835596,0.3462585077627388,8.624845968458074e-05
3,0.0010363914520329807,0.0002245721567327534,0.006919319064215774,0.34697619308177285,8.62692487609875e-05
4,0.0010370284650042185,0.00022471708538049836,0.006926924855804697,0.3476953655239803,8.629004284565307e-05
5,0.0010376658692921841,0.00022486210750266713,0.006934539001755747,0.34841602816912864,8.631084193978267e-05
6,0.0010383036651369928,0.0002250072231594756,0.006942161511232316,0.3491381841033564,8.633164604458184e-05
7,0.0010389418527789061,0.00022515243241117826,0.00694979239340782,0.3498618364191862,8.635245516125641e-05
8,0.0010395804324583333,0.00022529773531806843,0.006957431657465707,0.35058698821553796,8.637326929101247e-05
9,0.0010402194044158302,0.00022544313194047813,0.006965079312599467,0.35131364259774195,8.639408843505642e-05
10,0.0010408587688921006,0.00022558862233877815,0.006972735368012646,0.35204180267755225,8.641491259459496e-05
11,0.0010414353597983047,0.00022571983361925157,0.006980398897977158,0.3528945468975956,8.643273546835988e-05
12,0.0010419603401235523,0.0002258393047878933,0.006988069857387915,0.3538792073890644,8.644821105021526e-05
13,0.0010424426488307346,0.00022594906909761652,0.0069957482162933985,0.3550012765240082,8.646183168611634e-05
14,0.0010428893816124816,0.00022605074058781933,0.007003433957107068,0.35626478772361525,8.647396770268431e-05
15,0.001043306179475498,0.00022614560243763236,0.007011127072321995,0.3576726229437214,8.648489976057057e-05
16,0.0010436975546475036,0.00022623468107973305,0.007018827562604958,0.3592267647100114,8.64948429369842e-05
17,0.0010440671461844273,0.00022631880433264873,0.007026535435203888,0.3609285028295425,8.650396409967517e-05
18,0.001044417915390904,0.00022639864584755244,0.007034250702621759,0.36277860316748395,8.651239434423008e-05
19,0.0010447522940377413,0.0002264747588205729,0.007041973381517765,0.3647774446336237,8.65202379221076e-05
20,0.0010450722968230505,0.00022654760157311317,0.007049703491801307,0.3669251296939859,8.652757869957583e-05
21,0.0010453836859316758,0.0002266184852579022,0.007057441390571526,0.36917664817289725,8.653462270479679e-05
22,0.0010456873676279975,0.00022668761603371237,0.007065187113106401,0.37152971880931607,8.654140456309984e-05
23,0.001045984115971931,0.00022675516998528413,0.007072940693535649,0.373982231758492,8.65479533712777e-05
24,0.0010462745968546452,0.00022682129859093381,0.007080702164816368,0.37653224753711434,8.655429378601328e-05
25,0.0010465593869001361,0.00022688613302227452,0.007088471558736469,0.379177993102304,8.656044686237898e-05
26,0.0010468389884747203,0.0002269497875585812,0.007096248905937154,0.3819178560968387,8.656643070708245e-05
27,0.0010471138417146061,0.00022701236232283673,0.0071040342359481035,0.38475037799028383,8.657226099270718e-05
28,0.0010473843342460006,0.00022707394549287898,0.007111827577230797,0.3876742466284762,8.657795136645321e-05
29,0.0010476508091028652,0.0002271346151025505,0.007119628957226659,0.39068828854784343,8.658351377795045e-05
30,0.0010479135712244422,0.00022719444051977382,0.007127438402407677,0.3937914612990771,8.658895874437362e-05
31,0.0010481768579375594,0.00022725438608889388,0.0071352564472743595,0.3969111176866715,8.659441830139175e-05
32,0.001048440641385791,0.00022731444547433006,0.007143083097635821,0.40004779757500897,8.659989158678631e-05
33,0.0010487048962101418,0.0002273746129085893,0.007150918359644793,0.40320200527229777,8.660537781452084e-05
34,0.0010489695992596366,0.00022743488312643186,0.007158762239756587,0.4063742140996225,8.661087626602953e-05
35,0.0010492347293426288,0.0002274952513083004,0.0071666147446941735,0.40956487027735483,8.661638628271554e-05
36,0.0010495002670121469,0.00022755571303149143,0.007174475881418321,0.4127743962476825,8.662190725946322e-05
37,0.001049766194379836,0.0002276162642278321,0.007182345657101932,0.4160031935286296,8.662743863900403e-05
38,0.0010500324949540474,0.00022767690114684948,0.007190224079107897,0.4192516451766728,8.663297990700505e-05
39,0.0010502991534984082,0.00022773762032359934,0.007198111154969898,0.42252011792067445,8.663853058777145e-05
40,0.0010505661559078415,0.00022779841855046417,0.0072060068923757055,0.4258089640184554,8.664409024047347e-05
41,0.0010508412333823877,0.0002278610556096455,0.0072139122288203406,0.4289799207875124,8.66499018953801e-05
42,0.0010511241489058593,0.0002279254776317103,0.007221827085033933,0.4320440128574011,8.665596148042516e-05
43,0.001051414672206414,0.00022799163228024935,0.007229751393389978,0.43501090266138337,8.666226477487153e-05
44,0.0010517125799826704,0.00022805946880342375,0.0072376850960384825,0.43788909700965084,8.666880744835109e-05
45,0.0010520176560274049,0.00022812893806219362,0.007245628143388431,0.4406861171436892,8.667558509440617e-05
46,0.0010523296912693556,0.00022819999253990145,0.007253580492865682,0.44340863956020266,8.668259325919907e-05
47,0.0010526484837500292,0.000228272586337057,0.007261542107889719,0.4460626132866376,8.66898274659886e-05
48,0.0010529738385493975,0.0002283466751544853,0.007269512957025534,0.44865335806870316,8.669728323590836e-05
49,0.0010533055676718711,0.00022842221626743028,0.0072774930132766275,0.4511856469944738,8.670495610552148e-05
50,0.0010536434899018723,0.0002284991684927356,0.007285482253492437,0.4536637763577996,8.671284164157165e-05
51,0.0010539887682972154,0.00022857779668692123,0.0072934807484909,0.45607754316382987,8.672098267920627e-05
52,0.0010543412110991823,0.00022865805727950071,0.0073014884721284866,0.4584317576753384,8.672937487818079e-05
53,0.0010547006322805695,0.00022873990800303945,0.007309505402000947,0.4607307525259129,8.673801386978081e-05
54,0.001055066851519511,0.00022882330788722541,0.0073175315189627065,0.4629784415219254,8.674689527447894e-05
55,0.0010554396941424523,0.00022890821724591825,0.007325566806719091,0.46517836993119727,8.675601471717073e-05
56,0.0010558189910424543,0.00022899459765858324,0.0073336112514788224,0.46733375766078067,8.67653678402671e-05
57,0.0010562045785780106,0.0002290824119472898,0.007341664841656625,0.46944753646931164,8.677495031489274e-05
58,0.001056596298456714,0.00022917162415026182,0.007349727567617708,0.4715223821539323,8.678475785041326e-05
59,0.0010569939976073953,0.00022926219949280413,0.0073577994214573846,0.4735607424866816,8.679478620249037e-05
60,0.0010573975280437538,0.00022935410435629205,0.0073658803968103,0.47556486154193867,8.680503117984231e-05
61,0.001057811464881072,0.0002294483806155186,0.007373970699498208,0.47750320698951504,8.681566990714433e-05
62,0.0010582356033036098,0.00022954498177596815,0.007382070304740665,0.4793808067703631,8.682669896490863e-05
63,0.001058669740027141,0.00022964386169069904,0.007390179191394791,0.48120218420271177,8.683811464158444e-05
64,0.0010591136737682968,0.00022974497466710897,0.007398297341490694,0.48297141974334035,8.684991297061276e-05
65,0.0010595672056425464,0.00022984827555746313,0.0074064247398362175,0.48469220396069884,8.686208976449276e-05
66,0.0010600301394989207,0.0002299537198350293,0.0074145613736793054,0.48636788313005475,8.687464064601502e-05
67,0.0010605022821987794,0.0002300612636574823,0.00742270723241849,0.48800149861102204,8.688756107682326e-05
68,0.0010609834438451908,0.00023017086391907257,0.007430862307353714,0.4895958209661035,8.690084638346871e-05
69,0.0010614734379688162,0.00023028247829289973,0.007439026591471131,0.4911533796153143,8.691449178112053e-05
70,0.0010619720816755756,0.00023039606526449228,0.007447200079256604,0.4926764886887883,8.692849239509313e-05
71,0.0010624865111576412,0.00023051325034725883,0.00745538296263045,0.4941356002851405,8.694315476499831e-05
72,0.0010630164575577373,0.00023063397257248774,0.007463575215584003,0.4955362780137706,8.695847663378431e-05
73,0.0010635616444700778,0.00023075816925240497,0.007471776816206826,0.4968834724896837,8.697445473058153e-05
74,0.0010641217895055119,0.00023088577633611885,0.007479987746127643,0.49818160221344526,8.699108485548646e-05
75,0.0010646966057124682,0.00023101672873275696,0.0074882079900432915,0.49943462220903,8.700836196162067e-05
76,0.0010652858028622017,0.00023115096060373244,0.007496437535320193,0.5006460824869892,8.702628023404768e-05
77,0.00106588908860698,0.00023128840562610688,0.00750467637165579,0.5018191780183239,8.70448331652378e-05
78,0.0010665061695198225,0.00023142899722901057,0.007512924490789842,0.5029567915985418,8.70640136268642e-05
79,0.0010671367520242582,0.00023157266880504863,0.007521181886257296,0.5040615307354236,8.708381393779179e-05
80,0.0010677805432223355,0.00023171935389856615,0.007529448553176026,0.5051357594954896,8.710422592818729e-05
81,0.0010684385652933919,0.00023186928566838502,0.007537724507383587,0.5061784966820815,8.71253040641854e-05
82,0.0010691104965188517,0.00023202239111449005,0.007546009744429072,0.5071920545982662,8.714703896576589e-05
83,0.0010697960161392963,0.0002321785974516013,0.007554304261234423,0.5081785322187294,8.716942074261529e-05
84,0.0010704948051357647,0.00023233783228681227,0.007562608055938172,0.5091398390781618,8.719243906050459e-05
85,0.0010712065469203553,0.00023250002377660597,0.007570921127760016,0.5100777160567672,8.721608320340506e-05
86,0.001071930927943429,0.00023266510076491,0.007579243476883093,0.5109937535168237,8.724034213140715e-05
87,0.001072667638224344,0.00023283299290376705,0.007587575104351346,0.5118894071709424,8.726520453454059e-05
88,0.0010734163718122604,0.00023300363075810877,0.007595916011979779,0.512766012002246,8.729065888262007e-05
89,0.0010741768271831612,0.00023317694589603026,0.007604266202275785,0.5136247945067034,8.731669347126057e-05
90,0.0010749487075788398,0.00023335287096587387,0.007612625678369995,0.5144668834863698,8.734329646422153e-05
91,0.001075731722491565,0.0002335313400344593,0.0076209944439670895,0.5152933176908469,8.73704559945781e-05
92,0.0010765255854691084,0.0002337122880867398,0.007629372503267387,0.5161050582331457,8.739816007438415e-05
93,0.001077330015545181,0.00023389565135170036,0.0076377598609321026,0.5169029940031429,8.742639669046743e-05
94,0.001078144737396316,0.00023408136733805326,0.007646156522041034,0.5176879483424155,8.74551538338449e-05
95,0.0010789694814638568,0.00023426937486200404,0.007654562492054916,0.5184606849950857,8.748441952634956e-05
96,0.0010798039840446657,0.00023445961406790938,0.0076629777767818754,0.5192219134239899,8.751418184464519e-05
97,0.0010806479873538704,0.00023465202644258113,0.007671402382347461,0.5199722935692244,8.754442894180043e-05
98,0.0010815012395626884,0.00023484655482392748,0.007679836315167829,0.5207124401157008,8.757514906658885e-05
99,0.0010823634948141055,0.00023504314340456228,0.007688279581925691,0.5214429263274735,8.760633058067526e-05
100,0.0010832345132189447,0.00023524173773095862,0.007696732189548709,0.5221642874990176,8.763796197384188e-05
101,0.0010841140621932837,0.00023544228500844592,0.007705194145200359,0.5228770224158227,8.76700319516889e-05
102,0.00108500191363435,0.00023564473345742318,0.007713665456240857,0.5235815996189227,8.770252929547376e-05
103,0.0010858978453009884,0.00023584903262815487,0.007722146130222635,0.5242784581329528,8.773544294990615e-05
104,0.0010868016407524332,0.00023605513338690662,0.00773063617487601,0.524968009771482,8.776876203193647e-05
105,0.001087713089277057,0.00023626298789980417,0.007739135598096203,0.5256506412292062,8.780247583824233e-05
106,0.0010886319858125133,0.0002364725496147364,0.0077476444079315485,0.526326715983584,8.783657385152288e-05
107,0.001089558130858543,0.00023668377324159219,0.007756162612572789,0.5269965760258144,8.787104574570405e-05
108,0.0010904913303835953,0.00023689661473109126,0.007764690220343324,0.5276605434387308,8.79058813901506e-05
109,0.0010914313957262913,0.00023711103125244356,0.007773227239690325,0.5283189218371535,8.794107085297483e-05
110,0.0010923781434926572,0.00023732698117004723,0.007781773679176624,0.5289719976844739,8.797660440352499e-05
111,0.0010933313963395553,0.0002375444242223297,0.007790329547479013,0.5296200405905539,8.801247256432789e-05
112,0.0010942909810122794,0.00023776332107429613,0.007798894853369414,0.5302633063300918,8.804866600778167e-05
113,0.0010952567291996976,0.0002379836335127029,0.007807469605715035,0.5309020368422516,8.808517561088066e-05
114,0.001096228477422,0.00023820532442059926,0.007816053813472659,0.5315364611622396,8.812199245514615e-05
115,0.001097206066917547,0.00023842835775166404,0.007824647485683405,0.5321667962781785,8.815910782606971e-05
116,0.001098189343529278,0.00023865269850444242,0.0078332506314679,0.5327932479201826,8.819651321212129e-05
117,0.0010991781575910918,0.00023887831269657503,0.007841863260021838,0.5334160112878211,8.823420030336989e-05
118,0.0011001723638145518,0.00023910516733910103,0.007850485380611892,0.5340352717215222,8.827216098976112e-05
119,0.0011011718211762348,0.00023933323041090611,0.007859117002571928,0.5346512053229016,8.831038735909193e-05
120,0.0011021763928059929,0.00023956247083337757,0.00786775813529952,0.5352639795285067,8.834887169471946e-05
121,0.001103185946258114,0.00023979285853243537,0.007876408788254926,0.5358737532951436,8.838760649500323e-05
122,0.0011042003525813166,0.00024002436422646518,0.00788506897095333,0.5364806783417854,8.842658442340383e-05
123,0.0011052194866518743,0.00024025695950247164,0.007893738692964662,0.5370848991991082,8.846579833088464e-05
124,0.0011062432270675672,0.00024049061679202292,0.00790241796391103,0.5376865536338163,8.850524125286822e-05
125,0.001107271456043438,0.00024072530934760445,0.007911106793464334,0.5382857730430214,8.854490640606884e-05
126,0.0011083040593094574,0.00024096101121940609,0.007919805191344054,0.5388826828211221,8.858478718522219e-05
127,0.0011093409260101862,0.00024119769723256136,0.007928513167315184,0.5394774027014078,8.862487715973166e-05
128,0.001110381948606501,0.0002414353429648551,0.00793723073118632,0.5400700470744031,8.866517007024855e-05
129,0.0011114270227794369,0.00024167392472491134,0.007945957892807866,0.5406607252847897,8.870565982520199e-05
130,0.0011124760473361895,0.00024191341953087048,0.00795469466207038,0.5412495419085774,8.874634049729272e-05
131,0.001113528924203347,0.0002421538051089788,0.007963441048903463,0.541836596940918,8.878720632491365e-05
132,0.0011145855581189662,0.00024239505982342054,0.00797219706327314,0.5424219862214567,8.882825169590419e-05
133,0.001115645856680049,0.00024263716268728078,0.007980962715181238,0.543005801546654,8.886947115184842e-05
134,0.0011167097302573203,0.00024288009334321318,0.007989738014664106,0.5435881308820637,8.891085938453791e-05
135,0.001117777091912212,0.00024312383204460803,0.00799852297179144,0.5441690585612613,8.895241123245022e-05
136,0.001118847857316039,0.0002433683596372578,0.00800731759666516,0.5447486654724011,8.899412167724998e-05
137,0.0011199219446713534,0.00024361365754151608,0.008016121899418372,0.545327029233295,8.90359858403192e-05
138,0.0011209992746354473,0.00024385970773494465,0.008024935890214394,0.5459042243558343,8.907799897932224e-05
139,0.001122079770245983,0.00024410649273544222,0.008033759579245832,0.5464803224005094,8.912015648481042e-05
140,0.0011231633568487159,0.00024435399558484845,0.008042592976733721,0.5470553921217216,8.91624538768706e-05
141,0.001124249961926493,0.00024460219980999425,0.008051436092926197,0.5476294996844048,8.920488679591912e-05
142,0.0011253395152038843,0.00024485108944670376,0.008060288938098627,0.5482027086550377,8.924745100956751e-05
143,0.0011264319485099128,0.0002451006490085458,0.008069151522552529,0.5487750801798362,8.929014240526336e-05
144,0.0011275271957137672,0.0002453508634722494,0.008078023856614894,0.5493466730991924,8.933295698714521e-05
145,0.0011286251926624197,0.000245601718263552,0.00808690595063755,0.5499175440556346,8.937589087295512e-05
146,0.0011297258771201064,0.00024585319924346995,0.008095797814996567,0.550487747595736,8.94189402910103e-05
147,0.0011308291887096287,0.00024610529269498196,0.00810469946009169,0.5510573362663648,8.94621015772351e-05
148,0.0011319350688554321,0.0002463579853101156,0.00811361089634581,0.5516263607056449,8.95053711722542e-05
149,0.001133043460728417,0.000246611264177427,0.008122532134204458,0.5521948697289648,8.954874561854769e-05
150,0.0011341543091924395,0.0002468651167698633,0.008131463184135332,0.5527629104103493,8.959222155766842e-05
151,0.0011352675605944549,0.000247119530896891,0.008140404056627054,0.5533305282803364,8.963579571824739e-05
152,0.0011363831630138129,0.000247374494761544,0.008149354762190255,0.5538977671691121,8.96794649309224e-05
153,0.001137501066072578,0.0002476299969171622,0.008158315311356466,0.554464669384123,8.972322611746501e-05
154,0.0011386212208883322,0.00024788602625668346,0.008167285714677735,0.5550312757756379,8.976707628824655e-05
155,0.0011397435800284514,0.0002481425720022699,0.00817626598272627,0.5555976257989366,8.98110125397657e-05
156,0.0011408680974658119,0.00024839962369525853,0.008185256126094102,0.5561637575733268,8.985503205223733e-05
157,0.0011419947285358863,0.00024865717118642696,0.00819425615539276,0.5567297079381798,8.989913208724171e-05
158,0.0011431234298951878,0.00024891520462656526,0.008203266081252963,0.5572955125061592,8.994330998543367e-05
159,0.0011442541594810245,0.0002491737144573444,0.008212285914324342,0.5578612057138076,8.998756316431063e-05
160,0.0011453868764725208,0.00024943269140247255,0.008221315665275154,0.5584268208696447,9.00318891160388e-05
161,0.0011465215414282702,0.0002496921264992337,0.008230355344792904,0.5589923900687668,9.007628541562848e-05
162,0.0011476581159088274,0.0002499520110122444,0.008239404963582393,0.5595579444917885,9.012074969885902e-05
163,0.0011487965626065352,0.00025021233646319306,0.008248464532366316,0.5601235143222942,9.01652796699757e-05
164,0.0011499368453112596,0.0002504730946230655,0.008257534061885034,0.5606891287863077,9.020987309973933e-05
165,0.0011510789288772126,0.00025073427750461647,0.008266613562896362,0.5612548161899015,9.02545278235291e-05
166,0.0011522227791908258,0.00025099587735508025,0.008275703046175373,0.5618206039550476,9.029924173949734e-05
167,0.0011533683631396435,0.000251257886649112,0.008284802522514206,0.5623865186538073,9.034401280677534e-05
168,0.0011545156485822017,0.0002515202980819529,0.008293912002721884,0.5629525860409471,9.038883904372881e-05
169,0.0011556646043188632,0.0002517831045628122,0.00830303149762414,0.5635188310850688,9.043371852626227e-05
170,0.0011568152000635769,0.0002520462992084584,0.008312161018063261,0.5640852779983299,9.04786493861708e-05
171,0.0011579670362909728,0.0002523097906698275,0.008321300573057099,0.564652223452015,9.052360814255509e-05
172,0.0011591201122116976,0.0002525735787961501,0.00833045017361617,0.565219669452806,9.05685946855611e-05
173,0.0011602744270864888,0.00025283766344806955,0.008339609830763288,0.5657876179709754,9.061360890842112e-05
174,0.0011614299802247003,0.0002531020444973081,0.008348779555533566,0.566356070941523,9.065865070736105e-05
175,0.0011625867709828825,0.0002533667218263441,0.008357959358974432,0.5669250302652697,9.070371998151095e-05
176,0.0011637447987634096,0.00025363169532810107,0.008367149252145628,0.5674944978099146,9.074881663281862e-05
177,0.001164904063013156,0.0002538969649056471,0.00837634924611922,0.5680644754110512,9.079394056596632e-05
178,0.0011660645632222185,0.00025416253047190506,0.00838555935197961,0.568634964873151,9.08390916882902e-05
179,0.0011672262989226823,0.00025442839194937244,0.008394779580823531,0.5692059679705102,9.08842699097026e-05
180,0.0011683892696874288,0.00025469454926985114,0.008404009943760074,0.569777486448164,9.0929475142617e-05
