Time (hr),Plant Height (m),Leaf Area (m²),Number of Leaves (unitless),Spikelet Count (unitless),Fruit Biomass (kg)
0,0.0010344827586206897,0.00022413793103448276,0.006896551724137931,0.3448275862068966,8.620689655172413e-05
1,0.0010351185991121386,0.00022428258040471037,0.006904132507520779,0.3455423094509349,8.622767572480375e-05
2,0.0010357548302008905,0.00022442732307046114,0.006911721617835596,0.34625851369607263,8.624845990381179e-05
3,0.0010363914521266196,0.00022457215909183726,0.006919319064215774,0.34697620200946383,8.626924908995295e-05
4,0.001037028465129147,0.0002247170885289795,0.006926924855804697,0.3476953774646076,8.629004328443223e-05
5,0.0010376658694484409,0.00022486211144206737,0.006934539001755747,0.3484160431413614,8.631084248845493e-05
6,0.0010383036653246161,0.00022500722789131898,0.006942161511232316,0.3491382021259539,8.63316467032266e-05
7,0.0010389418529979345,0.0002251524379369912,0.00694979239340782,0.3498618575109984,8.635245592995311e-05
8,0.0010395804327088052,0.00022529774163937956,0.006957431657465707,0.35058701239550577,8.637327016984061e-05
9,0.0010402194046977844,0.0002254431390588184,0.006965079312599467,0.3513136698848978,8.639408942409554e-05
10,0.0010408587692055755,0.0002255886302556808,0.006972735368012646,0.3520418330910204,8.641491369392464e-05
11,0.001041435360137655,0.0002257198422493433,0.006980398897977158,0.35289458034242277,8.643273665870046e-05
12,0.0010419603404845266,0.00022583931406124267,0.006988069857387915,0.353879243787896,8.644821231695373e-05
13,0.0010424426492100704,0.00022594907895610354,0.0069957482162933985,0.35500131581320443,8.646183301797589e-05
14,0.0010428893820076297,0.0002260507509825062,0.007003433957107068,0.35626482985088476,8.647396909080905e-05
15,0.0010433061798844326,0.00022614561332683016,0.007011127072321995,0.35767266786655827,8.648490119789124e-05
16,0.00104369755506859,0.0002262346924275574,0.007018827562604958,0.35922681239458404,8.649484441777262e-05
17,0.0010440671466163272,0.00022631881610792387,0.007026535435203888,0.36092855324985107,8.650396561922632e-05
18,0.0010444179158325087,0.00022639865802296784,0.007034250702621759,0.3627786563046895,8.651239589863155e-05
19,0.0010447522944881213,0.00022647477137202498,0.007041973381517765,0.36477750047549284,8.652023950806965e-05
20,0.0010450722972814184,0.0002265476144791854,0.007049703491801307,0.36692518823442066,8.652758031430433e-05
21,0.0010453836863974556,0.00022661849850039398,0.007057441390571526,0.3691767093890581,8.653462434623233e-05
22,0.0010456873681006854,0.00022668762959621045,0.007065187113106401,0.3715297826837192,8.654140622943858e-05
23,0.0010459841164510838,0.00022675518385291443,0.007072940693535649,0.3739822982785207,8.654795506092872e-05
24,0.0010462745973398699,0.00022682131275015663,0.007080702164816368,0.376532316694595,8.655429549756454e-05
25,0.0010465593873910826,0.0002268861474607143,0.007088471558736469,0.3791780648931375,8.656044859456994e-05
26,0.001046838988971075,0.00022694980226488397,0.007096248905937154,0.38191793052067896,8.656643245878192e-05
27,0.0010471138422160867,0.0002270123772865496,0.0071040342359481035,0.38475045505025707,8.657226276289511e-05
28,0.0010473843347523514,0.00022707396070434775,0.007111827577230797,0.3876743263309349,8.657795315420569e-05
29,0.0010476508096138543,0.0002271346305528323,0.007119628957226659,0.39068837090215064,8.658351558242718e-05
30,0.0010479135717398576,0.00022719445620056174,0.007127438402407677,0.39379154631741725,8.65889605648075e-05
31,0.0010481768584572723,0.00022725440199318947,0.0071352564472743595,0.39691120535337815,8.659442013730375e-05
32,0.00104844064190968,0.0002273144615955674,0.007143083097635821,0.40004788787693085,8.659989343772569e-05
33,0.0010487048967380928,0.00022737462924059617,0.007150918359644793,0.403202098198584,8.660537968006271e-05
34,0.0010489695997915416,0.00022743489966339558,0.007158762239756587,0.40637430964153387,8.66108781457727e-05
35,0.0010492347298783858,0.00022749526804473737,0.0071666147446941735,0.4095649684280977,8.66163881762806e-05
36,0.001049500267551659,0.00022755572996222004,0.007174475881418321,0.41277449700226126,8.66219091664908e-05
37,0.0010497661949230121,0.00022761628134794858,0.007182345657101932,0.4160032968837162,8.662744055915328e-05
38,0.0010500324955008006,0.00022767691845170627,0.007190224079107897,0.4192517511304903,8.663298183995222e-05
39,0.0010502991540486555,0.00022773763780878554,0.007198111154969898,0.42252022647289306,8.663853253320866e-05
40,0.0010505661564615045,0.00022779843621178805,0.0072060068923757055,0.4258090751700994,8.664409219810757e-05
41,0.001050841233939488,0.00022786107344422983,0.0072139122288203406,0.4289800344800927,8.664990386526343e-05
42,0.001051124149466415,0.00022792549563677356,0.007221827085033933,0.43204412903625417,8.665596346259762e-05
43,0.00105141467277044,0.00022799165045310225,0.007229751393389978,0.43501102127533775,8.666226676936176e-05
44,0.0010517125805501782,0.000228059487141466,0.0072376850960384825,0.43788921801072933,8.666880945517756e-05
45,0.0010520176565984038,0.00022812895656291058,0.007245628143388431,0.44068624048684213,8.667558711357814e-05
46,0.0010523296918438522,0.00022820001120086092,0.007253580492865682,0.4434087652030689,8.668259529071747e-05
47,0.0010526484843280278,0.000228272605155906,0.007261542107889719,0.44606274118932987,8.668982950984688e-05
48,0.0010529738391309002,0.00022834669412894701,0.007269512957025534,0.44865348819361484,8.66972852920932e-05
49,0.0010533055682568787,0.00022842223539530095,0.0072774930132766275,0.45118577930610476,8.67049581740135e-05
50,0.0010536434904903833,0.0002284991877718817,0.007285482253492437,0.4536639108225986,8.671284372234596e-05
51,0.0010539887688892405,0.00022857781611541536,0.0072934807484909,0.4560776797431632,8.672098477227905e-05
52,0.0010543412116947304,0.00022865807685547112,0.0073014884721284866,0.45843189633269493,8.672937698356126e-05
53,0.0010547006328796476,0.0002287399277246683,0.007309505402000947,0.46073089322674543,8.673801598747183e-05
54,0.001055066852122124,0.00022882332775274697,0.0073175315189627065,0.462978584233507,8.674689740447755e-05
55,0.0010554396947486037,0.00022890823725361717,0.007325566806719091,0.46517851462249105,8.675601685946865e-05
56,0.0010558189916521463,0.0002289946178067928,0.0073336112514788224,0.4673339043023212,8.676536999485122e-05
57,0.0010562045791912436,0.00022908243223439034,0.007341664841656625,0.46944768503309703,8.677495248174551e-05
58,0.0010565962990734873,0.00022917164457467905,0.007349727567617708,0.47152253261332583,8.678476002951314e-05
59,0.0010569939982277073,0.0002292622200530076,0.0073577994214573846,0.47356089481632174,8.679478839381213e-05
60,0.0010573975286676015,0.00022935412505079364,0.0073658803968103,0.47556501571765664,8.680503338335743e-05
61,0.0010578114655084925,0.0002294484014432603,0.007373970699498208,0.4775033629706089,8.681567212295698e-05
62,0.0010582356039346374,0.00022954500273591092,0.007382070304740665,0.4793809645184199,8.682670119311407e-05
63,0.0010586697406618076,0.00022964388278182303,0.007390179191394791,0.4812023436814294,8.683811688226949e-05
64,0.0010591136744066319,0.00022974499588841355,0.007398297341490694,0.48297158091836706,8.684991522385625e-05
65,0.001059567206284577,0.00022984829690796685,0.0074064247398362175,0.4846923667994877,8.686209203036602e-05
66,0.0010600301401446721,0.00022995374131376984,0.0074145613736793054,0.4863680476017319,8.687464292458225e-05
67,0.0010605022828482748,0.0002300612852635163,0.00742270723241849,0.48800166468626727,8.688756336814198e-05
68,0.0010609834444984512,0.0002301708856514755,0.007430862307353714,0.4895959886170413,8.690084868759012e-05
69,0.0010614734386258612,0.00023028250015076575,0.007439026591471131,0.4911535488154148,8.69144940980899e-05
70,0.0010619720823364228,0.00023039608724693392,0.007447200079256604,0.49267665941277666,8.692849472495017e-05
71,0.001062486511822362,0.00023051327245389796,0.00745538296263045,0.4941357724909294,8.694315710795872e-05
72,0.0010630164582263993,0.0002306339948029411,0.007463575215584003,0.4955364516620285,8.69584789900517e-05
73,0.0010635616451427452,0.00023075819160628522,0.007471776816206826,0.4968836475435905,8.697445710034779e-05
74,0.0010641217901822457,0.0002308857988130354,0.007479987746127643,0.49818177863847535,8.69910872389321e-05
75,0.0010646966063933261,0.00023101675133231693,0.0074882079900432915,0.49943479997275797,8.70083643589152e-05
76,0.0010652858035472383,0.00023115098332554144,0.007496437535320193,0.5006462615589162,8.702628264534997e-05
77,0.0010658890892962468,0.00023128842846976958,0.00750467637165579,0.5018193583697224,8.70448355906965e-05
78,0.001066506170213368,0.0002314290201941314,0.007512924490789842,0.5029569732023148,8.706401606661811e-05
79,0.001067136752722128,0.00023157269189123225,0.007521181886257296,0.504061713565979,8.708381639197021e-05
80,0.0010677805439245724,0.00023171937710541801,0.007529448553176026,0.5051359435286257,8.710422839691046e-05
81,0.0010684385660000451,0.00023186930899558525,0.007537724507383587,0.506178681892947,8.71253065475935e-05
82,0.0010691104972299676,0.00023202241456171685,0.007546009744429072,0.5071922409633914,8.714704146398944e-05
83,0.001069796016854918,0.00023217862101853145,0.007554304261234423,0.5081787197159222,8.716942325577547e-05
84,0.0010704948058559332,0.0002323378559731216,0.007562608055938172,0.5091400276864133,8.719244158871366e-05
85,0.0010712065476451084,0.00023250004758196968,0.007570921127760016,0.5100779057561666,8.721608574676672e-05
86,0.0010719309286728025,0.00023266512468900316,0.007579243476883093,0.5109939442884806,8.724034469001686e-05
87,0.001072667638958371,0.0002328330169462649,0.007587575104351346,0.5118895989969158,8.726520710848597e-05
88,0.0010734163725509718,0.0002330036549186869,0.007595916011979779,0.5127662048654799,8.729066147198123e-05
89,0.0010741768279265856,0.0002331769701743651,0.007604266202275785,0.5136249883909677,8.731669607611046e-05
90,0.0010749487083270037,0.0002333528953616428,0.007612625678369995,0.5144670783762064,8.734329908462624e-05
91,0.0010757317232444929,0.00023353136454734095,0.0076209944439670895,0.5152935135715188,8.737045863059722e-05
92,0.001076525586226823,0.00023371231271641425,0.007629372503267387,0.5161052550905928,8.739816272607104e-05
93,0.0010773300163077028,0.00023389567609784925,0.0076377598609321026,0.5169031918239402,8.742639935786954e-05
94,0.0010781447381636642,0.00023408139220036002,0.007646156522041034,0.5176881471137343,8.745515651700402e-05
95,0.0010789694822360488,0.00023426939984015407,0.007654562492054916,0.5184608847046582,8.748442222530216e-05
96,0.001079803984821717,0.00023445963916159007,0.0076629777767818754,0.5192221140600763,8.75141845594226e-05
97,0.0010806479881357953,0.00023465205165148204,0.007671402382347461,0.5199724951205823,8.754443167242915e-05
98,0.0010815012403494995,0.00023484658014774048,0.007679836315167829,0.5207126425715571,8.757515181309081e-05
99,0.0010823634956058142,0.0002350431688429816,0.007688279581925691,0.5214431296774981,8.760633334306801e-05
100,0.0010832345140155612,0.00023524176328368102,0.007696732189548709,0.5221644917332994,8.763796475213884e-05
101,0.0010841140629948166,0.00023544231067517072,0.007705194145200359,0.5228772275248458,8.767003474589962e-05
102,0.0010850019144408069,0.00023564475923785233,0.007713665456240857,0.5235818055935463,8.770253210560405e-05
103,0.001085897846112376,0.000235849058521993,0.007722146130222635,0.5242786649643919,8.773544577595834e-05
104,0.001086801641568757,0.00023605515939386108,0.00773063617487601,0.5249682174512891,8.776876487390956e-05
105,0.0010877130900983213,0.00023626301401958506,0.007739135598096203,0.5256508497492542,8.780247869613217e-05
106,0.0010886319866387215,0.00023647257584705672,0.0077476444079315485,0.5263269253360502,8.783657672532236e-05
107,0.001089558131689698,0.00023668379958616771,0.007756162612572789,0.5269967862031655,8.787104863540323e-05
108,0.0010904913312196987,0.00023689664118764064,0.007764690220343324,0.527660754433709,8.790588429573693e-05
109,0.001091431396567344,0.00023711105782068837,0.007773227239690325,0.5283191336427633,8.794107377443326e-05
110,0.001092378144338659,0.000237327007849712,0.007781773679176624,0.5289722102939701,8.797660734083813e-05
111,0.0010933313971905059,0.0002375444510131419,0.007790329547479013,0.529620253997429,8.801247551747613e-05
112,0.0010942909818681774,0.00023776334797598615,0.007798894853369414,0.5302635205280659,8.804866897674333e-05
113,0.001095256730060541,0.00023798366052500412,0.007807469605715035,0.5309022518252624,8.808517859563208e-05
114,0.0010962284782877864,0.000238205351543248,0.007816053813472659,0.5315366769244327,8.812199545566184e-05
115,0.0010972060677882731,0.0002384283849843996,0.007824647485683405,0.5321670128138982,8.815911084232244e-05
116,0.0010981893444049404,0.00023865272584700707,0.0078332506314679,0.5327934652239632,8.819651624408223e-05
117,0.001099178158471686,0.00023887834014871398,0.007841863260021838,0.5334162293543794,8.823420335100866e-05
118,0.0011001723647000735,0.00023910519490056244,0.007850485380611892,0.534035490545749,8.827216405304595e-05
119,0.0011011718220666788,0.0002393332580814411,0.007859117002571928,0.5346514248998551,8.831039043798969e-05
120,0.0011021763937013535,0.0002395624986127402,0.00786775813529952,0.5352641998534057,8.834887478919578e-05
121,0.0011031859471583854,0.00023979288642038264,0.007876408788254926,0.5358739743633605,8.83876096050226e-05
122,0.0011042003534864923,0.000240024392222757,0.00788506897095333,0.5364809001488404,8.842658754892962e-05
123,0.0011052194875619478,0.00024025698760687082,0.007893738692964662,0.5370851217406637,8.846580147187922e-05
124,0.0011062432279825313,0.00024049064500429514,0.00790241796391103,0.5376867769056712,8.850524440929304e-05
125,0.0011072714569632853,0.00024072533766751833,0.007911106793464334,0.5382859970411058,8.854490957788447e-05
126,0.0011083040602341803,0.000240961039646733,0.007919805191344054,0.5388829075414926,8.85847903723884e-05
127,0.001109340926939777,0.0002411977257670756,0.007928513167315184,0.5394776281402427,8.862488036220747e-05
128,0.0011103819495409514,0.00024143537160633375,0.00793723073118632,0.5400702732279978,8.866517328799229e-05
129,0.0011114270237187387,0.00024167395347313424,0.007945957892807866,0.5406609521495523,8.870566305817137e-05
130,0.001112476048280334,0.00024191344838562029,0.00795469466207038,0.5412497694810251,8.874634374544485e-05
131,0.0011135289251523255,0.00024215383407004095,0.007963441048903463,0.5418368252176726,8.878720958820511e-05
132,0.0011145855590727696,0.00024239508889058314,0.00797219706327314,0.5424222151992415,8.882825497429111e-05
133,0.0011156458576386682,0.0002426371918603347,0.007980962715181238,0.5430060312222901,8.886947444528646e-05
134,0.001116709731220746,0.00024288012262195196,0.007989738014664106,0.5435883612524665,8.891086269298235e-05
135,0.0011177770928804346,0.00024312386142882786,0.00799852297179144,0.5441692896234374,8.895241455585595e-05
136,0.001118847858289049,0.00024336838912675755,0.00800731759666516,0.5447488972234452,8.89941250155716e-05
137,0.001119921945649141,0.00024361368713609724,0.008016121899418372,0.5453272616703871,8.903598919351102e-05
138,0.001120999275618003,0.00024385973743441128,0.008024935890214394,0.5459044574762368,8.907800234733831e-05
139,0.0011220797712332968,0.00024410652253960098,0.008033759579245832,0.5464805562015645,8.91201598676046e-05
140,0.0011231633578407778,0.0002443540254935085,0.008042592976733721,0.5470556266008487,8.916245727439654e-05
141,0.0011242499629232929,0.0002446022298229673,0.008051436092926197,0.5476297348390979,8.92048902081303e-05
142,0.001125339516205412,0.0002448511195638041,0.008060288938098627,0.5482029444828634,8.92474544364173e-05
143,0.0011264319495161578,0.00024510067922959005,0.008069151522552529,0.5487753166784312,8.9290145846705e-05
144,0.0011275271967247195,0.00024535089379705674,0.008078023856614894,0.5493469102662613,8.933296044313188e-05
145,0.0011286251936780689,0.000245601748691944,0.00808690595063755,0.5499177818889481,8.937589434343994e-05
146,0.0011297258781404421,0.0002458532297752706,0.008095797814996567,0.5504879860931287,8.941894377594635e-05
147,0.0011308291897346406,0.0002461053233300176,0.00810469946009169,0.5510575754257331,8.946210507657544e-05
148,0.0011319350698851098,0.00024635801604821496,0.00811361089634581,0.5516266005249457,8.95053746859519e-05
149,0.00113304346176275,0.0002466112950184211,0.008122532134204458,0.5521951102062136,8.954874914655583e-05
150,0.0011341543102314172,0.0002468651477135854,0.008131463184135332,0.5527631515436181,8.959222509994012e-05
151,0.001135267561638067,0.0002471195619431768,0.008140404056627054,0.5533307700677526,8.963579927473584e-05
152,0.0011363831640620488,0.0002473745259102314,0.008149354762190255,0.5538980096088566,8.967946850158084e-05
153,0.0011375010671254271,0.0002476300281680913,0.008158315311356466,0.5544649124744289,8.972322970224679e-05
154,0.0011386212219457843,0.00024788605760969664,0.008167285714677735,0.5550315195147889,8.976707988710509e-05
155,0.001139743581090496,0.00024814260345721163,0.00817626598272627,0.5555978701852656,8.981101615265456e-05
156,0.0011408680985324382,0.00024839965525197546,0.008185256126094102,0.5561640026052148,8.985503567911015e-05
157,0.0011419947296070839,0.00024865720284476795,0.00819425615539276,0.5567299536140543,8.98991357280523e-05
158,0.0011431234309709464,0.0002489152363863813,0.008203266081252963,0.5572957588244931,8.9943313640136e-05
159,0.0011442541605613337,0.00024917374631848845,0.008212285914324342,0.5578614526731183,8.99875668328588e-05
160,0.0011453868775573703,0.0002494327233647998,0.008221315665275154,0.5584270684684922,9.003189279838708e-05
161,0.0011465215425176495,0.00024969215856260134,0.008230355344792904,0.5589926383057533,9.007628911173131e-05
162,0.0011476581170027263,0.00024995204317651164,0.008239404963582393,0.559558193365557,9.012075340867103e-05
163,0.0011487965637049433,0.0002502123687282211,0.008248464532366316,0.5601237638315275,9.01652833934517e-05
164,0.0011499368464141667,0.00025047312698871753,0.008257534061885034,0.5606893789297274,9.020987683683436e-05
165,0.0011510789299846085,0.0002507343099707577,0.008266613562896362,0.5612550669662668,9.025453157419836e-05
166,0.0011522227803027001,0.00025099590992157776,0.008275703046175373,0.5618208553631552,9.029924550369627e-05
167,0.0011533683642559862,0.0002512579193158349,0.008284802522514206,0.5623867706924894,9.034401658445956e-05
168,0.0011545156497030026,0.00025152033084877213,0.008293912002721884,0.5629528387090714,9.03888428348542e-05
169,0.0011556646054441126,0.0002517831374296005,0.00830303149762414,0.5635190843815372,9.043372233078491e-05
170,0.0011568152011932648,0.0002520463321750905,0.008312161018063261,0.5640855319220776,9.047865320404701e-05
171,0.0011579670374250877,0.00025230982373616455,0.008321300573057099,0.5646524780021928,9.052361197373701e-05
172,0.0011591201133502285,0.000252573611962056,0.00833045017361617,0.5652199246285826,9.056859853000147e-05
173,0.0011602744282294246,0.0002528376967134112,0.008339609830763288,0.5657878737715377,9.061361276607327e-05
174,0.0011614299813720301,0.0002531020778619552,0.008348779555533566,0.5663563273660752,9.065865457817889e-05
175,0.0011625867721345956,0.0002533667552901692,0.008357959358974432,0.5669252873130338,9.070372386544895e-05
176,0.0011637447999194954,0.0002536317288909794,0.008367149252145628,0.5674947554801291,9.074882052983183e-05
177,0.0011649040641736044,0.0002538969985674566,0.00837634924611922,0.5680647337029715,9.079394447601032e-05
178,0.0011660645643870194,0.00025416256423252637,0.00838555935197961,0.568635223786049,9.083909561132114e-05
179,0.0011672263000918255,0.0002544284258086888,0.008394779580823531,0.5692062275036739,9.088427384567717e-05
180,0.0011683892708609042,0.0002546945832277483,0.008404009943760074,0.5697777466008972,9.09294790914924e-05
