Time (hr),Plant Height (m),Leaf Area (m²),Number of Leaves (unitless),Spikelet Count (unitless),Fruit Biomass (kg)
0,0.0010344827586206897,0.00022413793103448276,0.006896551724137931,0.3448275862068966,8.620689655172413e-05
1,0.0010351185992431905,0.00022428258016158914,0.006904132507520779,0.3455423084151252,8.622767568636348e-05
2,0.001035754830463155,0.00022442732258372872,0.006911721617835596,0.3462585116180086,8.624845982690346e-05
3,0.0010363914525202578,0.0002245721583610029,0.006919319064215774,0.3469761988826696,8.626924897454875e-05
4,0.0010370284656543206,0.00022471708755355174,0.006926924855804697,0.34769537328257616,8.629004313050434e-05
5,0.0010376658701053113,0.00022486211022155396,0.006934539001755747,0.3484160378975541,8.631084229597549e-05
6,0.0010383036661133448,0.00022500722642522693,0.006942161511232316,0.34913819581380057,8.633164647216776e-05
7,0.0010389418539186834,0.00022515243622482674,0.00694979239340782,0.3498618501238971,8.6352455660287e-05
8,0.0010395804337617362,0.00022529773968064817,0.006957431657465707,0.3505870039268227,8.637326986153935e-05
9,0.0010402194058830596,0.0002254431368530248,0.006965079312599467,0.3513136603279671,8.639408907713122e-05
10,0.0010408587705233571,0.00022558862780232893,0.006972735368012646,0.3520418224391441,8.641491330826935e-05
11,0.0010414353615642211,0.0002257198395722618,0.006980398897977158,0.35289456862748414,8.643273624108032e-05
12,0.0010419603420020094,0.00022583931118038236,0.006988069857387915,0.3538792310359227,8.644821187247503e-05
13,0.0010424426508047577,0.00022594907588835823,0.0069957482162933985,0.3550013020456429,8.646183255058431e-05
14,0.0010428893836688065,0.00022605074774232844,0.007003433957107068,0.35626481508537056,8.647396860360665e-05
15,0.0010433061816035832,0.00022614560992669937,0.007011127072321995,0.35767265211742266,8.648490069335655e-05
16,0.0010436975568388416,0.0002262346888783407,0.007018827562604958,0.35922679567321364,8.649484389791561e-05
17,0.0010440671484320554,0.0002263188124191573,0.007026535435203888,0.3609285355649606,8.650396508569911e-05
18,0.0010444179176890512,0.00022639865420307794,0.007034250702621759,0.36277863766254026,8.65123953528088e-05
19,0.0010447522963815696,0.00022647476742850548,0.007041973381517765,0.36477748088007445,8.652023895110789e-05
20,0.0010450722992084622,0.00022654761041873928,0.007049703491801307,0.3669251676876057,8.652757974718634e-05
21,0.0010453836883556721,0.00022661849432881604,0.007057441390571526,0.36917668789865304,8.653462376968235e-05
22,0.0010456873700879572,0.00022668762531874597,0.007065187113106401,0.37152976025567547,8.654140564409126e-05
23,0.0010459841184655469,0.0002267551794743328,0.007072940693535649,0.37398227491710073,8.654795446734401e-05
24,0.0010462745993798722,0.00022682130827481262,0.007080702164816368,0.3765322924025171,8.655429489623963e-05
25,0.001046559389455152,0.00022688614289259924,0.007088471558736469,0.3791780396717017,8.65604479859488e-05
26,0.0010468389910578925,0.00022694979760766896,0.007096248905937154,0.38191790436987727,8.65664318432631e-05
27,0.0010471138443244644,0.00022701237254362221,0.0071040342359481035,0.3847504279688697,8.657226214083811e-05
28,0.001047384336881215,0.0002270739558788434,0.007111827577230797,0.38767429831661504,8.65779525259362e-05
29,0.0010476508117622275,0.00022713462564766105,0.007119628957226659,0.39068834195149854,8.658351494824151e-05
30,0.0010479135739068508,0.00022719445121843163,0.007127438402407677,0.3937915164260456,8.65889599249762e-05
31,0.0010481768606423426,0.00022725439693643294,0.0071352564472743595,0.39691117452672636,8.659441949199555e-05
32,0.0010484406441123174,0.00022731445646637308,0.007143083097635821,0.4000478561195585,8.659989278709942e-05
33,0.0010487048989578165,0.00022737462404102173,0.007150918359644793,0.40320206551424553,8.660537902426814e-05
34,0.0010489696020278977,0.00022743489439537904,0.007158762239756587,0.4063742760332442,8.661087748495126e-05
35,0.0010492347321309453,0.00022749526271010722,0.0071666147446941735,0.4095649338981902,8.661638751056609e-05
36,0.001049500269820016,0.0002275557245627043,0.007174475881418321,0.4127744615524391,8.662190849600997e-05
37,0.0010497661972067814,0.00022761627588518274,0.007182345657101932,0.41600326051509773,8.662743988402639e-05
38,0.0010500324977996166,0.00022767691292724057,0.007190224079107897,0.41925171384364984,8.663298116029348e-05
39,0.001050299156362171,0.00022773763222409138,0.007198111154969898,0.42252018826789706,8.663853184912674e-05
40,0.0010505661587893887,0.00022779843056826383,0.0072060068923757055,0.42580903604653886,8.664409150970595e-05
41,0.0010508412362818323,0.00022786106774291346,0.0072139122288203406,0.42897999445855917,8.664990317252325e-05
42,0.0010511241518232955,0.00022792548987866565,0.007221827085033933,0.4320440881359952,8.665596276550443e-05
43,0.001051414675141919,0.00022799164463916763,0.007229751393389978,0.43501097951437384,8.666226606790514e-05
44,0.0010517125829363056,0.00022805948127263513,0.0072376850960384825,0.43788917540595823,8.666880874935068e-05
45,0.0010520176589992175,0.00022812895064008105,0.007245628143388431,0.4406861970541325,8.667558640337747e-05
46,0.0010523296942593799,0.00022820000522489874,0.007253580492865682,0.44340872095734396,8.668259457614242e-05
47,0.0010526484867582878,0.00022827259912764703,0.007261542107889719,0.44606269614464306,8.668982879089954e-05
48,0.001052973841575902,0.0002283466880491982,0.007269512957025534,0.44865344236321736,8.669728456877806e-05
49,0.0010533055707166242,0.00022842222926484164,0.0072774930132766275,0.4511857327025067,8.670495744633721e-05
50,0.0010536434929648674,0.0002284991815914648,0.007285482253492437,0.45366386345762455,8.671284299031712e-05
51,0.001053988771378509,0.00022857780988573353,0.0072934807484909,0.45607763163043424,8.672098403589175e-05
52,0.0010543412141988202,0.00022865807057719526,0.0073014884721284866,0.458431847485085,8.672937624281203e-05
53,0.0010547006353985875,0.00022873992139844834,0.007309505402000947,0.460730843656437,8.673801524235947e-05
54,0.0010550668546559356,0.0002288233213792127,0.0073175315189627065,0.4629785339520418,8.674689665500294e-05
55,0.0010554396972973013,0.00022890823083337894,0.007325566806719091,0.46517846364081544,8.675601610563457e-05
56,0.0010558189942157384,0.00022899461134044232,0.0073336112514788224,0.46733385263082833,8.676536923666215e-05
57,0.001056204581769733,0.00022908242572250133,0.007341664841656625,0.46944763268166445,8.677495171920752e-05
58,0.0010565963016668713,0.00022917163801780793,0.007349727567617708,0.4715224795913502,8.678475926263371e-05
59,0.0010569940008359785,0.00022926221345169416,0.0073577994214573846,0.4735608411327505,8.679478762260007e-05
60,0.0010573975312907482,0.00022935411840556164,0.0073658803968103,0.47556496138101695,8.680503260782271e-05
61,0.00105781146814667,0.00022944839475452273,0.007373970699498208,0.4775033079952688,8.681567134306254e-05
62,0.0010582356065879897,0.00022954499600407136,0.007382070304740665,0.4793809089179405,8.682670040882602e-05
63,0.001058669743330469,0.00022964387600727578,0.007390179191394791,0.48120228746862753,8.683811609355693e-05
64,0.0010591136770907261,0.00022974498907154368,0.007398297341490694,0.4829715241053718,8.684991443069112e-05
65,0.001059567208984219,0.00022984829004915036,0.0074064247398362175,0.48469230939779173,8.686209123272291e-05
66,0.0010600301428599676,0.00022995373441337384,0.0074145613736793054,0.4863679896222379,8.687464212243829e-05
67,0.0010605022855793209,0.00023006127832189913,0.00742270723241849,0.48800160613932975,8.688756256147669e-05
68,0.0010609834472453375,0.00023017087866898688,0.007430862307353714,0.48959592951250536,8.690084787638523e-05
69,0.0010614734413886694,0.000230282493127747,0.007439026591471131,0.4911534891626508,8.691449328232926e-05
70,0.0010619720851152278,0.00023039608018371813,0.007447200079256604,0.49267659922071216,8.69284939046196e-05
71,0.0010624865146174633,0.0002305132653506937,0.00745538296263045,0.49413571177443355,8.694315628298166e-05
72,0.0010630164610380818,0.00023063398765995518,0.007463575215584003,0.4955363904349979,8.695847816035585e-05
73,0.0010635616479712795,0.00023075818442372227,0.007471776816206826,0.49688358581903536,8.697445626586504e-05
74,0.0010641217930278878,0.00023088579159109783,0.007479987746127643,0.4981817164285958,8.699108639959835e-05
75,0.0010646966092563187,0.00023101674407120456,0.0074882079900432915,0.4994347372890129,8.700836351467027e-05
76,0.0010652858064278106,0.0002311509760254514,0.007496437535320193,0.5006461984120841,8.702628179613744e-05
77,0.0010658890921946154,0.00023128842113089617,0.00750467637165579,0.5018192947699565,8.704483473646357e-05
78,0.001066506173129737,0.00023142901281666598,0.007512924490789842,0.5029569091591927,8.706401520731549e-05
79,0.0010671367556566896,0.00023157268447536317,0.007521181886257296,0.5040616490885467,8.708381552755199e-05
80,0.0010677805468775074,0.0002317193696513305,0.007529448553176026,0.5051358786254382,8.710422752733391e-05
81,0.00106843856897156,0.0002318693015034446,0.007537724507383587,0.5061786165727894,8.712530567280886e-05
82,0.001069110500220257,0.00023202240703168602,0.007546009744429072,0.507192175234561,8.714704058395034e-05
83,0.0010697960198641646,0.00023217861345077096,0.007554304261234423,0.5081786535862647,8.716942237043888e-05
84,0.0010704948088843078,0.0002323378483677895,0.007562608055938172,0.5091399611633567,8.719244069803971e-05
85,0.0010712065506927714,0.0002325000399392216,0.007570921127760016,0.5100778388467508,8.721608485071857e-05
86,0.0010719309317399036,0.0002326651170089921,0.007579243476883093,0.5109938769993851,8.72403437885606e-05
87,0.0010726676420450495,0.00023283300922914138,0.007587575104351346,0.5118895313344849,8.726520620159048e-05
88,0.0010734163756573576,0.00023300364716459887,0.007595916011979779,0.5127661368357449,8.729066055961803e-05
89,0.0010741768310527993,0.00023317696238345795,0.007604266202275785,0.5136249199996682,8.731669515825364e-05
90,0.001074948711473157,0.00023335288753405936,0.007612625678369995,0.5144670096288092,8.73432981612523e-05
91,0.0010757317264106889,0.00023353135668322154,0.0076209944439670895,0.5152934444732358,8.737045770168498e-05
92,0.0010765255894131568,0.00023371230481589669,0.007629372503267387,0.5161051856463968,8.739816179160153e-05
93,0.001077330019514262,0.00023389566816106884,0.0076377598609321026,0.5169031220385797,8.742639841782587e-05
94,0.0010781447413905285,0.00023408138422744963,0.007646156522041034,0.5176880769917469,8.745515557137133e-05
95,0.0010789694854832909,0.00023426939183124413,0.007654562492054916,0.5184608142503833,8.748442127406747e-05
96,0.0010798039880894033,0.00023445963111680862,0.0076629777767818754,0.5192220432776665,8.751418360257477e-05
97,0.0010806479914239856,0.0002346520435709548,0.007671402382347461,0.5199724240140146,8.754443070995873e-05
98,0.0010815012436582471,0.0002348465720315908,0.007679836315167829,0.5207125711446426,8.757515084498998e-05
99,0.001082363498935167,0.0002350431606913306,0.007688279581925691,0.5214430579338912,8.76063323693305e-05
100,0.0010832345173655616,0.00023524175509664753,0.007696732189548709,0.5221644196765066,8.763796377275987e-05
101,0.0010841140663655018,0.00023544230245287138,0.007705194145200359,0.5228771551582337,8.767003376087576e-05
102,0.001085001917832209,0.0002356447509804016,0.007713665456240857,0.523581732920349,8.770253111493321e-05
103,0.0010858978495245225,0.00023584905022950325,0.007722146130222635,0.5242785919877178,8.773544477963966e-05
104,0.0010868016450016706,0.00023605515106644257,0.00773063617487601,0.524968144174127,8.776876387194336e-05
105,0.0010877130935520209,0.00023626300565734605,0.007739135598096203,0.5256507761744798,8.78024776885199e-05
106,0.0010886319901132215,0.0002364725674501034,0.0077476444079315485,0.5263268514664314,8.78365757120665e-05
107,0.001089558135185009,0.00023668379115460438,0.007756162612572789,0.5269967120413681,8.787104761650728e-05
108,0.001090491334735828,0.00023689663272156964,0.007764690220343324,0.5276606799823014,8.790588327120533e-05
109,0.0010914314001042955,0.0002371110493202102,0.007773227239690325,0.528319058904221,8.79410727442713e-05
110,0.0010923781478964334,0.00023732699931492524,0.007781773679176624,0.5289721352706803,8.797660630505197e-05
111,0.0010933314007691005,0.00023754444244414338,0.007790329547479013,0.5296201786916945,8.80124744760727e-05
112,0.0010942909854675868,0.00023776333937287094,0.007798894853369414,0.5302634449421094,8.804866792973029e-05
113,0.0010952567336807572,0.00023798365188786553,0.007807469605715035,0.5309021759612295,8.80851775430178e-05
114,0.0010962284819287984,0.00023820534287217769,0.007816053813472659,0.5315366007843954,8.812199439745533e-05
115,0.0010972060714500677,0.00023842837627948752,0.007824647485683405,0.5321669363998582,8.815910977853336e-05
116,0.0010981893480875022,0.00023865271710834154,0.0078332506314679,0.5327933885378552,8.819651517472076e-05
117,0.0010991781621749975,0.00023887833137638178,0.007841863260021838,0.5334161523980734,8.823420227608558e-05
118,0.001100172368424115,0.0002391051860946488,0.007850485380611892,0.5340354133210535,8.82721629725725e-05
119,0.0011011718258114288,0.00023933324924202968,0.007859117002571928,0.5346513474085195,8.831038935197759e-05
120,0.0011021763974667885,0.0002395624897399132,0.00786775813529952,0.5352641220971225,8.834887369765722e-05
121,0.0011031859509444805,0.00023979287751422075,0.007876408788254926,0.5358738963437678,8.838760850797015e-05
122,0.001104200357293221,0.00024002438328333953,0.00788506897095333,0.5364808218675241,8.842658644637627e-05
123,0.0011052194913892816,0.00024025697863427567,0.007893738692964662,0.5370850431991594,8.846580036383829e-05
124,0.001106243231830441,0.0002404906359985988,0.00790241796391103,0.5376866981054663,8.85052432957782e-05
125,0.00110727146083174,0.00024072532862879598,0.007911106793464334,0.5382859179836411,8.85449084589097e-05
126,0.0011083040641231478,0.0002409610305750585,0.007919805191344054,0.5388828282281642,8.858478924796794e-05
127,0.0011093409308492242,0.00024119771666252147,0.007928513167315184,0.5394775485724038,8.862487923235585e-05
128,0.0011103819534708443,0.0002414353624689713,0.00793723073118632,0.5400701934069602,8.866517215272428e-05
129,0.0011114270276690419,0.00024167394430303356,0.007945957892807866,0.5406608720765876,8.870566191750196e-05
130,0.0011124760522510113,0.00024191343918285017,0.00795469466207038,0.5412496891573666,8.874634259938924e-05
131,0.00111352892914334,0.00024215382483466904,0.007963441048903463,0.5418367446445166,8.878720843677869e-05
132,0.0011145855630840837,0.00024239507962267592,0.00797219706327314,0.5424221343777482,8.882825381750943e-05
133,0.0011156458616702431,0.0002426371825599575,0.007980962715181238,0.5430059501535853,8.886947328316524e-05
134,0.0011167097352725427,0.00024288011328916896,0.007989738014664106,0.5435882799376425,8.891086152553745e-05
135,0.0011177770969524132,0.00024312385206370216,0.00799852297179144,0.5441692080635542,8.895241338310335e-05
136,0.0011188478623811696,0.00024336837972935117,0.00800731759666516,0.5447488154195318,8.89941238375274e-05
137,0.0011199219497613625,0.00024361367770647113,0.008016121899418372,0.5453271796234422,8.903598801019142e-05
138,0.001120999279750284,0.00024385972797262535,0.008024935890214394,0.54590437518723,8.907800115875962e-05
139,0.0011220797753855958,0.0002441065130457141,0.008033759579245832,0.546480473671437,8.912015867378317e-05
140,0.0011231633620130523,0.0002443540159675786,0.008042592976733721,0.5470555438305146,8.916245607534879e-05
141,0.0011242499671155007,0.0002446022202650513,0.008051436092926197,0.5476296518294448,8.920488900387274e-05
142,0.00112533952041751,0.0002448511099739578,0.008060288938098627,0.5482028612347534,8.924745322696645e-05
143,0.0011264319537481033,0.00024510066960786855,0.008069151522552529,0.5487752331927013,8.929014463207745e-05
144,0.001127527200976469,0.00024535088414351407,0.008078023856614894,0.5493468265437246,8.933295922334425e-05
145,0.001128625197949579,0.0002456017390066333,0.00808690595063755,0.5499176979303944,8.937589311850883e-05
146,0.0011297258824316692,0.00024585322005824407,0.008095797814996567,0.550487901899325,8.94189425458884e-05
147,0.001130829194045541,0.0002461053135813266,0.00810469946009169,0.5510574909974246,8.946210384140731e-05
148,0.0011319350742156394,0.00024635800626791,0.00811361089634581,0.5516265158628563,8.950537344569023e-05
149,0.0011330434661128647,0.0002466112852065517,0.008122532134204458,0.5521950253110464,8.954874790121725e-05
150,0.001134154314601073,0.00024686513787020053,0.008131463184135332,0.5527630664160561,8.959222384954126e-05
151,0.0011352675660272196,0.0002471195520683243,0.008140404056627054,0.5533306847084593,8.96357980192933e-05
152,0.0011363831684706542,0.00024737451600395844,0.008149354762190255,0.5538979240184765,8.96794672411112e-05
153,0.0011375010715534413,0.00024763001823044427,0.008158315311356466,0.554464826653588,8.972322843676661e-05
154,0.001138621226393163,0.00024788604764072107,0.008167285714677735,0.5550314334640954,8.976707861663089e-05
155,0.0011397435855571949,0.00024814259345695233,0.00817626598272627,0.5555977839053103,8.981101487720281e-05
156,0.0011408681030184136,0.00024839964522047644,0.008185256126094102,0.5561639160965715,8.985503439869728e-05
157,0.0011419947341122917,0.00024865719278207253,0.00819425615539276,0.5567298668772802,8.98991344426947e-05
158,0.0011431234354953427,0.000248915226292532,0.008203266081252963,0.5572956718601294,8.994331234985e-05
159,0.0011442541651048746,0.0002491737361935272,0.008212285914324342,0.5578613654816904,8.998756553766066e-05
160,0.0011453868821200122,0.0002494327132087676,0.008221315665275154,0.5584269810505106,9.003189149829305e-05
161,0.0011465215470993489,0.0002496921483755386,0.008230355344792904,0.5589925506617133,9.007628780675753e-05
162,0.0011476581216034397,0.00024995203295845813,0.008239404963582393,0.5595581054959397,9.012075209883361e-05
163,0.0011487965683246275,0.00025021235847921586,0.008248464532366316,0.5601236757367997,9.016528207876666e-05
164,0.0011499368510527784,0.00025047311670879896,0.008257534061885034,0.5606892906103422,9.020987551731765e-05
165,0.0011510789346421049,0.00025073429965996347,0.008266613562896362,0.5612549784226641,9.025453024986587e-05
166,0.0011522227849790386,0.00025099589957994505,0.008275703046175373,0.5618207665957616,9.029924417456381e-05
167,0.001153368368951124,0.00025125790894340005,0.008284802522514206,0.5623866817017189,9.034401525054287e-05
168,0.0011545156544168977,0.000251520320445571,0.008293912002721884,0.5629527494953255,9.038884149616893e-05
169,0.0011556646101767226,0.00025178312699566827,0.00830303149762414,0.5635189949452052,9.043372098734664e-05
170,0.0011568152059445477,0.00025204632171046173,0.008312161018063261,0.564085442263537,9.047865185587123e-05
171,0.001157967042194996,0.00025230981324087713,0.008321300573057099,0.5646523881217449,9.052361062084069e-05
172,0.001159120118138715,0.00025257360143614706,0.00833045017361617,0.5652198345265224,9.056859717240138e-05
173,0.0011602744330364428,0.000252837686156917,0.008339609830763288,0.5657877834481536,9.061361140378597e-05
174,0.001161429986197535,0.00025310206727491107,0.008348779555533566,0.5663562368216496,9.065865321122072e-05
175,0.001162586776978542,0.00025336674467260975,0.008357959358974432,0.5669251965478428,9.070372249383607e-05
176,0.001163744804781839,0.00025363171824293836,0.008367149252145628,0.5674946644944427,9.074881915358019e-05
177,0.0011649040690543016,0.00025389698788896696,0.00837634924611922,0.5680646424970541,9.079394309513567e-05
178,0.0011660645692860272,0.0002541625535236202,0.00838555935197961,0.568635132360159,9.083909422583903e-05
179,0.0011672263050091017,0.0002544284150693976,0.008394779580823531,0.5692061358580638,9.088427245560298e-05
180,0.0011683892757964071,0.0002546945724581027,0.008404009943760074,0.5697776547358142,9.092947769684131e-05
