Time (hr),Plant Height (m),Leaf Area (m²),Number of Leaves (unitless),Spikelet Count (unitless),Fruit Biomass (kg)
0,0.0010344827586206897,0.00022413793103448276,0.006896551724137931,0.3448275862068966,8.620689655172413e-05
1,0.001035118599263021,0.0002242825803331925,0.006904132507520779,0.34554230904952243,8.622767570989967e-05
2,0.0010357548305028404,0.00022442732292726476,0.006911721617835596,0.34625851289075016,8.624845987399285e-05
3,0.0010363914525798226,0.00022457215887680145,0.006919319064215774,0.34697620079772173,8.626924904520839e-05
4,0.001037028465733789,0.00022471708824194314,0.006926924855804697,0.3476953758439242,8.629004322475125e-05
5,0.0010376658702047077,0.000224862111082869,0.006934539001755747,0.3484160411092027,8.631084241382673e-05
6,0.001038303666232694,0.0002250072274597969,0.006942161511232316,0.34913819967977383,8.633164661364038e-05
7,0.0010389418540580097,0.00022515243743298345,0.00694979239340782,0.34986185464823844,8.635245582539807e-05
8,0.001039580433921064,0.00022529774106272392,0.006957431657465707,0.3505870091135951,8.637327005030594e-05
9,0.0010402194060624135,0.00022544313840935237,0.006965079312599467,0.3513136661812531,8.639408928957042e-05
10,0.0010408587707227618,0.00022558862953324163,0.006972735368012646,0.352041828963046,8.641491354439824e-05
11,0.0010414353617800884,0.00022571984145901378,0.006980398897977158,0.35289457580229544,8.643273649677575e-05
12,0.001041960342231636,0.00022583931320763133,0.006988069857387915,0.35387923884556327,8.644821214460788e-05
13,0.0010424426510460695,0.00022594907804336347,0.0069957482162933985,0.3550013104768673,8.646183283673736e-05
14,0.0010428893839201819,0.00022605075001436988,0.007003433957107068,0.35626482412728866,8.647396890187996e-05
15,0.0010433061818637336,0.00022614561230665072,0.007011127072321995,0.3576726617611842,8.648490100223237e-05
16,0.0010436975571067272,0.0002262346913583507,0.007018827562604958,0.3592268059117839,8.649484421616334e-05
17,0.0010440671487068247,0.0002263188149924082,0.007026535435203888,0.36092854639295074,8.65039654123074e-05
18,0.001044417917969999,0.00022639865686359975,0.007034250702621759,0.36277864907607116,8.651239568693623e-05
19,0.0010447522966681043,0.00022647477017103112,0.007041973381517765,0.3647774928766638,8.652023929204667e-05
20,0.0010450722995000827,0.00022654761323859026,0.007049703491801307,0.3669251802660719,8.652758009433508e-05
21,0.001045383688652012,0.00022661849722202445,0.007057441390571526,0.3691767010541895,8.653462412259784e-05
22,0.0010456873703886958,0.0002266876282817336,0.007065187113106401,0.3715297739846144,8.654140600238516e-05
23,0.001045984118770402,0.00022675518250385706,0.007072940693535649,0.37398228921681087,8.654795483067371e-05
24,0.0010462745996885937,0.00022682131136792183,0.007080702164816368,0.37653230727131454,8.655429526430095e-05
25,0.0010465593897675174,0.00022688614604659556,0.007088471558736469,0.3791780551087723,8.656044835847014e-05
26,0.001046838991373702,0.00022694980082007724,0.007096248905937154,0.38191792037520883,8.656643222000066e-05
27,0.0010471138446435382,0.0002270123758121637,0.0071040342359481035,0.38475044454319285,8.6572262521572e-05
28,0.0010473843372033904,0.00022707395920141353,0.007111827577230797,0.387674315461351,8.65779529104672e-05
29,0.0010476508120873568,0.00022713462902231027,0.007119628957226659,0.3906883596687136,8.658351533638841e-05
30,0.0010479135742347992,0.00022719445464334902,0.007127438402407677,0.39379153471841105,8.658896031657351e-05
31,0.0010481768609730282,0.0002272544004100977,0.0071352564472743595,0.3969111933909044,8.659441988694007e-05
32,0.0010484406444456627,0.000227314459987358,0.007143083097635821,0.4000478755527504,8.659989318529398e-05
33,0.0010487048992937488,0.00022737462760798495,0.007150918359644793,0.40320208551414566,8.660537942562116e-05
34,0.0010489696023663483,0.0002274348980070566,0.007158762239756587,0.406374296598,8.661087788937622e-05
35,0.0010492347324718495,0.00022749526636530652,0.0071666147446941735,0.4095649550263664,8.661638791798116e-05
36,0.0010495002701633122,0.0002275557282602982,0.007174475881418321,0.4127744832429864,8.662190890633763e-05
37,0.0010497661975524112,0.0002276162796241044,0.007182345657101932,0.4160032827673249,8.66274402971931e-05
38,0.0010500324981475248,0.00022767691670647866,0.007190224079107897,0.4192517366571988,8.663298157622939e-05
39,0.0010502991567123048,0.00022773763604268599,0.007198111154969898,0.4225202116427206,8.66385322677654e-05
40,0.001050566159141698,0.00022779843442530257,0.0072060068923757055,0.4258090599828808,8.664409193098408e-05
41,0.001050841236636331,0.00022786107163777773,0.0072139122288203406,0.4289800189438219,8.664990359645234e-05
42,0.0010511241521799952,0.00022792549381075704,0.007221827085033933,0.43204411315840363,8.665596319209328e-05
43,0.0010514146755008292,0.00022799164860790722,0.007229751393389978,0.4350110050629039,8.666226649716008e-05
44,0.0010517125832974338,0.00022805948527746285,0.0072376850960384825,0.437889201470273,8.666880918127584e-05
45,0.0010520176593625695,0.00022812895468045496,0.007245628143388431,0.4406862236245248,8.667558683797496e-05
46,0.0010523296946249598,0.0002282000093002944,0.007253580492865682,0.4434087480246853,8.668259501341259e-05
47,0.0010526484871260984,0.00022827260323755682,0.007261542107889719,0.446062723700337,8.668982923084105e-05
48,0.0010529738419459448,0.00022834669219313065,0.007269512957025534,0.44865347039915854,8.669728501138816e-05
49,0.0010533055710888995,0.00022842223344232086,0.0072774930132766275,0.4511857612110432,8.67049578916118e-05
50,0.0010536434933393745,0.00022849918580202986,0.007285482253492437,0.45366389243152383,8.671284343825093e-05
51,0.0010539887717552548,0.00022857781412896915,0.0072934807484909,0.45607766106136566,8.672098448648835e-05
52,0.0010543412145778103,0.00022865807485269798,0.0073014884721284866,0.45843187736517504,8.672937669607353e-05
53,0.0010547006357798261,0.00022873992570582611,0.007309505402000947,0.4607308739782352,8.673801569828658e-05
54,0.001055066855039426,0.00022882332571808454,0.0073175315189627065,0.46297856470848964,8.67468971135951e-05
55,0.0010554396976830461,0.00022890823520337454,0.007325566806719091,0.4651784948252186,8.675601656689004e-05
56,0.0010558189946037386,0.0002289946157412017,0.0073336112514788224,0.46733388423683103,8.676536970057818e-05
57,0.0010562045821599889,0.00022908243015367448,0.007341664841656625,0.46944766470322624,8.677495218578038e-05
58,0.0010565963020593826,0.00022917164247905454,0.007349727567617708,0.47152251202272477,8.678475973185882e-05
59,0.0010569940012307441,0.00022926221794268328,0.0073577994214573846,0.4735608739684664,8.679478809447203e-05
60,0.0010573975316877661,0.00022935412292597135,0.0073658803968103,0.47556499461585977,8.680503308233541e-05
61,0.001057811468545964,0.0002294483993041279,0.007373970699498208,0.4775033416204534,8.681567182023859e-05
62,0.001058235606989582,0.0002295450005826507,0.007382070304740665,0.47938094292517525,8.682670088868612e-05
63,0.0010586697437343794,0.00022964388061461194,0.007390179191394791,0.48120232185007605,8.683811657611993e-05
64,0.0010591136774969737,0.00022974499370742317,0.007398297341490694,0.4829715588536183,8.684991491597417e-05
65,0.001059567209392821,0.0002298482947133636,0.0074064247398362175,0.4846923445058096,8.68620917207415e-05
66,0.0010600301432709398,0.00022995373910571516,0.0074145613736793054,0.4863680250833614,8.687464261320638e-05
67,0.0010605022859926782,0.0002300612830421668,0.00742270723241849,0.48800164194722834,8.688756305500678e-05
68,0.0010609834476610932,0.000230170883416983,0.007430862307353714,0.48959596566116,8.690084837268846e-05
69,0.0010614734418068362,0.00023028249790327758,0.007439026591471131,0.4911535256463328,8.69144937814155e-05
70,0.001061972085535817,0.0002303960849865929,0.007447200079256604,0.4926766360339636,8.692849440649748e-05
71,0.0010624865150405203,0.00023051327018083778,0.00745538296263045,0.4941357489081645,8.694315678769793e-05
72,0.0010630164614636498,0.00023063399251729215,0.007463575215584003,0.49553642788071306,8.695847866795468e-05
73,0.0010635616483993993,0.0002307581893081745,0.007471776816206826,0.49688362356878146,8.697445677638802e-05
74,0.0010641217934585982,0.00023088579650258671,0.007479987746127643,0.4981817544749149,8.699108691308463e-05
75,0.0010646966096896564,0.00023101674900965065,0.0074882079900432915,0.49943477562490024,8.700836403115661e-05
76,0.0010652858068638104,0.00023115098099077457,0.007496437535320193,0.500646237030951,8.70262823156583e-05
77,0.00106588909263331,0.00023128842612301582,0.00750467637165579,0.5018193336655964,8.704483525905118e-05
78,0.0010665061735711575,0.00023142901783550115,0.007512924490789842,0.5029569483257511,8.706401573299994e-05
79,0.0010671367561008649,0.0002315726895208327,0.007521181886257296,0.5040616885204942,8.708381605636133e-05
80,0.001067780547324465,0.0002317193747233531,0.007529448553176026,0.5051359183175455,8.710422805929423e-05
81,0.0010684385694213312,0.0002318693066019557,0.007537724507383587,0.5061786565196865,8.712530620795055e-05
82,0.001069110500672871,0.00023202241215662043,0.007546009744429072,0.5071922154311763,8.714704112230171e-05
83,0.0010697960203196494,0.00023217861860206287,0.007554304261234423,0.5081786940278026,8.716942291202622e-05
84,0.0010704948093426892,0.00023233785354537261,0.007562608055938172,0.5091400018452771,8.719244124288736e-05
85,0.0010712065511540737,0.00023250004514302922,0.007570921127760016,0.5100778797647507,8.721608539884903e-05
86,0.0010719309322041492,0.0002326651222389573,0.007579243476883093,0.5109939181493818,8.724034433999457e-05
87,0.0010726676425122598,0.00023283301448519698,0.007587575104351346,0.5118895727126006,8.726520675634696e-05
88,0.0010734163761275523,0.0002330036524466776,0.007595916011979779,0.5127661784382934,8.729066111771442e-05
89,0.0010741768315259965,0.00023317696769149248,0.007604266202275785,0.5136249618231414,8.731669571970575e-05
90,0.0010749487119493736,0.00023335289286798236,0.007612625678369995,0.5144670516698658,8.734329872607448e-05
91,0.0010757317268899407,0.00023353136204296577,0.0076209944439670895,0.5152934867286904,8.737045826989016e-05
92,0.001076525589895458,0.00023371231020139502,0.007629372503267387,0.51610522811321,8.739816236320129e-05
93,0.001077330019999626,0.0002338956735722543,0.0076377598609321026,0.5169031647138493,8.742639899283053e-05
94,0.0010781447418789672,0.0002340813896642555,0.007646156522041034,0.5176881198726997,8.745515614978995e-05
95,0.0010789694859748154,0.00023426939729360392,0.007654562492054916,0.5184608573343671,8.748442185590797e-05
96,0.0010798039885840237,0.00023445963660465613,0.0076629777767818754,0.5192220865621434,8.751418418784396e-05
97,0.0010806479919217107,0.00023465204908422414,0.007671402382347461,0.519972467496554,8.754443129866238e-05
98,0.0010815012441590854,0.00023484657757021646,0.007679836315167829,0.5207126148229154,8.757515143713285e-05
99,0.0010823634994391257,0.00023504316625524744,0.007688279581925691,0.521443101805664,8.760633296491642e-05
100,0.0010832345178726469,0.00023524176068579083,0.007696732189548709,0.5221644637396364,8.763796437179176e-05
101,0.0010841140668757193,0.00023544230806717684,0.007705194145200359,0.522877199410663,8.76700343633557e-05
102,0.0010850019183455638,0.00023564475661980543,0.007713665456240857,0.5235817773601014,8.770253172086248e-05
103,0.0010858978500410186,0.0002358490558939421,0.007722146130222635,0.5242786366128935,8.773544538901878e-05
104,0.0010868016455213114,0.00023605515675585354,0.00773063617487601,0.5249681889828995,8.776876448477214e-05
105,0.0010877130940748093,0.00023626301137166678,0.007739135598096203,0.5256508211650918,8.780247830479743e-05
106,0.0010886319906391597,0.00023647257318927206,0.0077476444079315485,0.5263268966371912,8.783657633179127e-05
107,0.0010895581357140988,0.00023668379691855966,0.007756162612572789,0.5269967573906467,8.787104823967716e-05
108,0.0010904913352680705,0.00023689663851025078,0.007764690220343324,0.527660725508529,8.79058838978176e-05
109,0.001091431400639691,0.00023711105513355693,0.007773227239690325,0.528319104605885,8.794107337432273e-05
110,0.0010923781484349822,0.00023732700515287795,0.007781773679176624,0.5289721811463218,8.797660693853877e-05
111,0.0010933314013108022,0.00023754444830664296,0.007790329547479013,0.5296202247399062,8.801247511299065e-05
112,0.0010942909860124405,0.0002377633452598589,0.007798894853369414,0.5302634911615332,8.80486685700747e-05
113,0.0010952567342287615,0.00023798365779928392,0.007807469605715035,0.530902222350554,8.808517818678356e-05
114,0.001096228482479952,0.00023820534880796915,0.007816053813472659,0.5315366473423544,8.812199504463693e-05
115,0.0010972060720043685,0.00023842838223959528,0.007824647485683405,0.5321669831252286,8.81591104291249e-05
116,0.0010981893486449478,0.00023865272309270944,0.0078332506314679,0.5327934354294547,8.819651582871601e-05
117,0.0010991781627355853,0.00023887833738495422,0.007841863260021838,0.5334161994547592,8.823420293347796e-05
118,0.001100172368987842,0.00023910519212737077,0.007850485380611892,0.5340354605417205,8.827216363335514e-05
119,0.0011011718263782917,0.0002393332552988468,0.007859117002571928,0.5346513947920987,8.831039001614334e-05
120,0.0011021763980367837,0.00023956249582077167,0.00786775813529952,0.5352641696425796,8.834887436519861e-05
121,0.0011031859515176043,0.00023979288361906736,0.007876408788254926,0.5358739440501019,8.83876091788795e-05
122,0.0011042003578694694,0.00024002438941212167,0.00788506897095333,0.5364808697337661,8.842658712064566e-05
123,0.0011052194919686504,0.00024025698478694134,0.007893738692964662,0.537085091224371,8.846580104145959e-05
124,0.0011062432324129257,0.0002404906421750966,0.00790241796391103,0.5376867462887386,8.850524397674304e-05
125,0.0011072714614173357,0.00024072533482907504,0.007911106793464334,0.5382859663240936,8.854490914320955e-05
126,0.0011083040647118499,0.0002409610367990686,0.007919805191344054,0.538882876724944,8.85847899355941e-05
127,0.0011093409314410277,0.000241197722910213,0.007928513167315184,0.5394775972246838,8.862487992329944e-05
128,0.0011103819540657439,0.00024143536874029516,0.00793723073118632,0.540070242213939,8.866517284697627e-05
129,0.0011114270282670323,0.00024167395059794127,0.007945957892807866,0.5406609210374882,8.870566261505318e-05
130,0.0011124760528520871,0.00024191344550129385,0.00795469466207038,0.5412497382714353,8.874634330023043e-05
131,0.0011135289297474955,0.00024215383117660137,0.007963441048903463,0.5418367939110225,8.878720914090044e-05
132,0.001114585563691313,0.00024239508598805016,0.00797219706327314,0.5424221837959823,8.882825452490225e-05
133,0.0011156458622805408,0.00024263718894872746,0.007980962715181238,0.5430059997228598,8.886947399381951e-05
134,0.0011167097358859026,0.00024288011970128906,0.007989738014664106,0.5435883296572899,8.891086223944349e-05
135,0.0011177770975688295,0.00024312385849912737,0.00799852297179144,0.5441692579329268,8.89524141002514e-05
136,0.0011188478630006359,0.000243368386188037,0.00800731759666516,0.544748865438001,8.899412455790762e-05
137,0.0011199219503838728,0.00024361368418837365,0.008016121899418372,0.5453272297903978,8.903598873379391e-05
138,0.0011209992803758318,0.00024385973447770118,0.008024935890214394,0.5459044255020795,8.907800188557442e-05
139,0.0011220797760141748,0.00024410651957392044,0.008033759579245832,0.5464805241336054,8.912015940380029e-05
140,0.0011231633626446562,0.00024435402251887317,0.008042592976733721,0.5470555944394432,8.91624568085582e-05
141,0.001124249967750123,0.00024460222683939234,0.008051436092926197,0.5476297025845913,8.920488974026434e-05
142,0.0011253395210551445,0.0002448511165713042,0.008060288938098627,0.5482029121355911,8.924745396653017e-05
143,0.0011264319543887434,0.0002451006762281795,0.008069151522552529,0.5487752842387189,8.929014537480316e-05
144,0.0011275272016201081,0.00024535089078674946,0.008078023856614894,0.5493468777344253,8.933295996922178e-05
145,0.0011286251985962105,0.0002456017456727535,0.00808690595063755,0.5499177492652957,8.937589386752805e-05
146,0.0011297258830812865,0.00024585322674720996,0.008095797814996567,0.5504879533779581,8.941894329803914e-05
147,0.0011308291946981372,0.0002461053202930996,0.00810469946009169,0.5510575426193344,8.94621045966794e-05
148,0.0011319350748712081,0.000246358013002452,0.00811361089634581,0.5516265676276004,8.95053742040735e-05
149,0.0011330434667713993,0.0002466112919638252,0.008122532134204458,0.5521950772181953,8.954874866270154e-05
150,0.0011341543152625668,0.0002468651446501683,0.008131463184135332,0.5527631184651924,8.959222461411642e-05
151,0.001135267566691666,0.00024711955887094975,0.008140404056627054,0.5533307368991777,8.963579878694917e-05
152,0.0011363831691380464,0.0002473745228292055,0.008149354762190255,0.5538979763503832,8.967946801183768e-05
153,0.0011375010722237725,0.00024763002507827733,0.008158315311356466,0.5544648791263005,8.972322921055357e-05
154,0.0011386212270664265,0.000247886054511105,0.008167285714677735,0.5550314860772422,8.976707939346824e-05
155,0.0011397435862333842,0.00024814260034985243,0.00817626598272627,0.5555978366585305,8.981101565708047e-05
156,0.001140868103697522,0.00024839965213585856,0.008185256126094102,0.5561639689895145,8.985503518160524e-05
157,0.0011419947347943125,0.0002486571997199029,0.00819425615539276,0.5567299199096056,8.989913522862295e-05
158,0.0011431234361802694,0.00024891523325277733,0.008203266081252963,0.5572957250315066,8.994331313878854e-05
159,0.0011442541657927005,0.00024917374317615467,0.008212285914324342,0.5578614187917983,8.998756632959958e-05
160,0.0011453868828107305,0.00024943272021374493,0.008221315665275154,0.5584270344990374,9.003189229322242e-05
161,0.001146521547792953,0.00024969215540283387,0.008230355344792904,0.5589926042483565,9.007628860466749e-05
162,0.0011476581222999232,0.0002499520400080398,0.008239404963582393,0.5595581592204053,9.012075289971432e-05
163,0.0011487965690239836,0.00025021236555105295,0.008248464532366316,0.5601237295988026,9.016528288260833e-05
164,0.001149936851755001,0.00025047312380286084,0.008257534061885034,0.5606893446096056,9.020987632411053e-05
165,0.0011510789353471871,0.00025073430677622,0.008266613562896362,0.5612550325589194,9.025453105960026e-05
166,0.001152222785686974,0.00025099590671836646,0.008275703046175373,0.561820820868748,9.029924498723006e-05
167,0.0011533683696619064,0.000251257916103957,0.008284802522514206,0.5623867361111835,9.034401606613136e-05
168,0.0011545156551305204,0.00025152032762823463,0.008293912002721884,0.5629528040410231,9.038884231467011e-05
169,0.0011556646108931794,0.00025178313420041006,0.00830303149762414,0.5635190496268979,9.043372180875099e-05
170,0.0011568152066638322,0.00025204632893725365,0.008312161018063261,0.5640854970809942,9.047865268016928e-05
171,0.0011579670429171008,0.000252309820489688,0.008321300573057099,0.5646524430747827,9.052361144802208e-05
172,0.0011591201188636334,0.00025257360870694636,0.00833045017361617,0.5652198896149605,9.056859800245587e-05
173,0.0011602744337641676,0.00025283769344967486,0.008339609830763288,0.5657878386718159,9.061361223670343e-05
174,0.001161429986928059,0.0002531020745895983,0.008348779555533566,0.5663562921803637,9.065865404699118e-05
175,0.0011625867777118586,0.00025336675200919763,0.008357959358974432,0.56692525204144,9.070372333244966e-05
176,0.0011637448055179416,0.00025363172560139894,0.008367149252145628,0.567494720122758,9.074881999502717e-05
177,0.0011649040697931834,0.0002538969952692728,0.00837634924611922,0.5680646982599262,9.079394393940643e-05
178,0.0011660645700276818,0.00025416256092574454,0.00838555935197961,0.56863518825743,9.083909507292405e-05
179,0.0011672263057535225,0.0002544284224933141,0.008394779580823531,0.5692061918895794,9.088427330549287e-05
180,0.0011683892765435879,0.00025469457990378577,0.008404009943760074,0.5697777109014236,9.09294785495268e-05
