Time (hr),Plant Height (m),Leaf Area (m²),Number of Leaves (unitless),Spikelet Count (unitless),Fruit Biomass (kg)
0,0.0010344827586206897,0.00022413793103448276,0.006896551724137931,0.3448275862068966,8.620689655172413e-05
1,0.0010351185991792412,0.00022428258054863203,0.006904132507520779,0.3455423099384426,8.622767574292162e-05
2,0.001035754830335178,0.00022442732335857326,0.006911721617835596,0.3462585146741212,8.624845994006062e-05
3,0.0010363914523281747,0.00022457215952440899,0.006919319064215774,0.34697620348110114,8.626924914434586e-05
4,0.0010370284653980523,0.00022471708910628044,0.006926924855804697,0.3476953794328963,8.629004335698233e-05
5,0.001037665869784779,0.0002248621121643675,0.006934539001755747,0.34841604560937883,8.631084257917533e-05
6,0.00103830366572847,0.00022500722875888867,0.006942161511232316,0.3491382050967924,8.633164681213044e-05
7,0.0010389418534693868,0.0002251524389501012,0.00694979239340782,0.34986186098776517,8.635245605705352e-05
8,0.0010395804332479388,0.00022529774279830107,0.006957431657465707,0.35058701638132306,8.637327031515074e-05
9,0.0010402194053046824,0.00022544314036382297,0.006965079312599467,0.3513136743829029,8.639408958762855e-05
10,0.001040858769880321,0.0002255886317070404,0.006972735368012646,0.35204183810436573,8.641491387569368e-05
11,0.0010414353608680996,0.00022571984383062645,0.006980398897977158,0.35289458585662825,8.643273685554974e-05
12,0.0010419603412615205,0.00022583931575911794,0.006988069857387915,0.3538792497911204,8.64482125264843e-05
13,0.001042442650026592,0.00022594908075958584,0.0069957482162933985,0.35500132229567816,8.646183323833202e-05
14,0.0010428893828581924,0.00022605075288241564,0.007003433957107068,0.3562648368045691,8.647396932053051e-05
15,0.001043306180764676,0.000226145615315398,0.007011127072321995,0.3576726752849227,8.648490143581038e-05
16,0.0010436975559749949,0.000226234694498135,0.007018827562604958,0.35922682027244823,8.649484466294191e-05
17,0.001044067147546014,0.00022631881825476403,0.007026535435203888,0.36092856158326486,8.65039658708665e-05
18,0.0010444179167830902,0.00022639866024105808,0.007034250702621759,0.36277866509083645,8.651239615609387e-05
19,0.0010447522954575962,0.0002264747736569586,0.007041973381517765,0.3647775097126097,8.652023977080807e-05
20,0.001045072298268092,0.00022654761682706033,0.007049703491801307,0.3669251979217282,8.652758058185468e-05
21,0.0010453836874000876,0.00022661850090793464,0.007057441390571526,0.36917671952295705,8.653462461825253e-05
22,0.0010456873691181915,0.00022668763206046752,0.007065187113106401,0.3715297932614756,8.654140650562882e-05
23,0.0010459841174825096,0.0002267551863712189,0.007072940693535649,0.3739823092981892,8.654795534102436e-05
24,0.0010462745983843696,0.00022682131532008202,0.007080702164816368,0.3765323281549526,8.655429578133054e-05
25,0.0010465593884479028,0.00022688615008004532,0.007088471558736469,0.3791780767936251,8.656044888179637e-05
26,0.0010468389900395402,0.00022694980493159027,0.007096248905937154,0.3819179428613508,8.656643274928027e-05
27,0.0010471138432955889,0.00022701237999876373,0.0071040342359481035,0.3847504678317358,8.657226305649531e-05
28,0.0010473843358423404,0.0002270739634603465,0.007111827577230797,0.3876743395543726,8.65779534507536e-05
29,0.0010476508107138305,0.00022713463335102067,0.007119628957226659,0.39068838456919425,8.65835158817826e-05
30,0.0010479135728493655,0.00022719445903945928,0.007127438402407677,0.3937915604301784,8.658896086684233e-05
31,0.0010481768595760339,0.00022725440487157144,0.0071352564472743595,0.39691121990931544,8.659442044193819e-05
32,0.0010484406430374342,0.00022731446451228408,0.007143083097635821,0.4000479028739166,8.659989374488461e-05
33,0.0010487048978745934,0.00022737463219456622,0.007150918359644793,0.40320211363486924,8.660537998967527e-05
34,0.0010489696009365562,0.0002274349026536001,0.007158762239756587,0.40637432551571767,8.661087845777196e-05
35,0.0010492347310316948,0.0002274952710702147,0.0071666147446941735,0.40956498473909986,8.661638849060324e-05
36,0.0010495002687130547,0.0002275557330220611,0.007174475881418321,0.4127745137492984,8.66219094830768e-05
37,0.0010497661960922973,0.00022761628444129266,0.007182345657101932,0.41600331406628044,8.662744087794572e-05
38,0.001050032496677788,0.0002276769215777373,0.007190224079107897,0.41925176874833014,8.663298216089698e-05
39,0.0010502991552331677,0.00022773764096672874,0.007198111154969898,0.42252024452599646,8.66385328562543e-05
40,0.0010505661576533719,0.00022779843940090683,0.0072060068923757055,0.4258090936586785,8.664409252320506e-05
41,0.0010508412351387573,0.00022786107666405362,0.0072139122288203406,0.428980053394415,8.664990419242185e-05
42,0.0010511241506731253,0.00022792549888684592,0.007221827085033933,0.4320441483672214,8.665596379182395e-05
43,0.001051414673984623,0.00022799165373298052,0.007229751393389978,0.4350110410144307,8.666226710066108e-05
44,0.0010517125817718594,0.00022805949045072085,0.0072376850960384825,0.4378892381499587,8.666880978855321e-05
45,0.0010520176578276026,0.00022812895990112568,0.007245628143388431,0.4406862610187045,8.667558744903189e-05
46,0.0010523296930805828,0.0002282000145676324,0.007253580492865682,0.44340878612050705,8.66825956282497e-05
47,0.0010526484855722996,0.0002282726085508422,0.007261542107889719,0.4460627624856975,8.668982984945669e-05
48,0.001052973840382718,0.0002283466975516679,0.007269512957025534,0.44865350986264446,8.669728563377854e-05
49,0.0010533055695162434,0.0002284222388454378,0.0072774930132766275,0.45118580134187886,8.670495851777129e-05
50,0.0010536434917572924,0.00022849919124907675,0.007285482253492437,0.45366393321952364,8.671284406817219e-05
51,0.0010539887701637176,0.00022857781961935081,0.0072934807484909,0.4560777024947936,8.672098512017662e-05
52,0.0010543412129767943,0.0002286580803858375,0.0073014884721284866,0.45843191943293826,8.67293773335319e-05
53,0.0010547006341693128,0.00022873993128116418,0.007309505402000947,0.460730916669836,8.673801633951616e-05
54,0.0010550668534194017,0.00022882333133507885,0.0073175315189627065,0.4629786080139821,8.674689775859523e-05
55,0.0010554396960535013,0.00022890824086149915,0.007325566806719091,0.46517853873516923,8.675601721565843e-05
56,0.001055818992964668,0.00022899462143994643,0.0073336112514788224,0.46733392874228274,8.676537035311103e-05
57,0.001056204580511391,0.00022908243589254436,0.007341664841656625,0.46944770979566597,8.677495284207253e-05
58,0.001056596300401259,0.00022917164825756923,0.007349727567617708,0.47152255769405355,8.678476039190385e-05
59,0.0010569939995630994,0.00022926222376037648,0.0073577994214573846,0.47356092021097207,8.679478875826242e-05
60,0.001057397530010608,0.00022935412878239038,0.0073658803968103,0.4755650414221922,8.68050337498626e-05
61,0.0010578114668591929,0.0002294484051989243,0.007373970699498208,0.47750338897822375,8.681567249153468e-05
62,0.0010582356052931054,0.00022954500651548352,0.007382070304740665,0.47938099082269,8.682670156378048e-05
63,0.001058669742028112,0.0002296438865851477,0.007390179191394791,0.48120237027628293,8.683811725503935e-05
64,0.001059113675780836,0.0002297449997153358,0.007398297341490694,0.48297160779805753,8.684991559874295e-05
65,0.0010595672076667397,0.00022984830075833441,0.0074064247398362175,0.48469239395856994,8.686209240738166e-05
66,0.0010600301415348474,0.00022995374518743265,0.0074145613736793054,0.4863680750350401,8.687464330373775e-05
67,0.0010605022842465125,0.0002300612891603266,0.00742270723241849,0.48800169238889485,8.688756374944713e-05
68,0.001060983445904797,0.00023017088957128775,0.007430862307353714,0.489596016584323,8.690084907105364e-05
69,0.001061473440040357,0.00023028250409343673,0.007439026591471131,0.49115357704291007,8.691449448371952e-05
70,0.001061972083759107,0.00023039609121232272,0.007447200079256604,0.4926766878962546,8.692849511275263e-05
71,0.001062486513253388,0.0002305132764419735,0.00745538296263045,0.494135801223342,8.694315749797047e-05
72,0.001063016459665913,0.00023063399881366987,0.007463575215584003,0.49553648063678846,8.695847938230716e-05
73,0.0010635616465908848,0.00023075819563963136,0.007471776816206826,0.4968836767545304,8.697445749487937e-05
74,0.0010641217916391424,0.00023088580286896105,0.007479987746127643,0.4981818080798113,8.69910876357703e-05
75,0.001064696607859104,0.00023101675541078233,0.0074882079900432915,0.4994348296390573,8.700836475808869e-05
76,0.0010652858050220148,0.00023115098742650513,0.007496437535320193,0.5006462914450686,8.70262830468856e-05
77,0.0010658890907801327,0.00023128843259318852,0.00750467637165579,0.5018193884709135,8.70448359946194e-05
78,0.0010665061717064677,0.0002314290243399612,0.007512924490789842,0.5029570035140034,8.706401647295174e-05
79,0.0010671367542245398,0.00023157269605942728,0.007521181886257296,0.5040617440838755,8.708381680073646e-05
80,0.0010677805454363891,0.0002317193812959315,0.007529448553176026,0.5051359742486733,8.710422880812963e-05
81,0.0010684385675213725,0.00023186931320838577,0.007537724507383587,0.5061787128109795,8.712530696128932e-05
82,0.001069110498760905,0.00023202241879677132,0.007546009744429072,0.5071922720754739,8.714704188018394e-05
83,0.0010697960183955592,0.00023217862527580527,0.007554304261234423,0.5081787510183335,8.716942367448916e-05
84,0.0010704948074063655,0.00023233786025257875,0.007562608055938172,0.5091400591756307,8.719244200996552e-05
85,0.001071206549205414,0.00023250005188357292,0.007570921127760016,0.5100779374288508,8.721608617057428e-05
86,0.0010719309302430577,0.00023266512901271404,0.007579243476883093,0.5109939761414632,8.724034511639629e-05
87,0.0010726676405386473,0.0002328330212920439,0.007587575104351346,0.5118896310271878,8.72652075374521e-05
88,0.0010734163741413357,0.00023300365928649355,0.007595916011979779,0.5127662370701801,8.72906619035476e-05
89,0.001074176829527099,0.00023317697456415806,0.007604266202275785,0.5136250207673735,8.731669651028943e-05
90,0.0010749487099377235,0.00023335289977337987,0.007612625678369995,0.5144671109217244,8.734329952142899e-05
91,0.001075731724865472,0.00023353136898097927,0.0076209944439670895,0.5152935462836762,8.737045907003384e-05
92,0.0010765255878581101,0.00023371231717191036,0.007629372503267387,0.5161052879670306,8.739816316815059e-05
93,0.0010773300179493428,0.00023389568057515908,0.0076377598609321026,0.5169032248624056,8.742639980260006e-05
94,0.0010781447398156977,0.000234081396699439,0.007646156522041034,0.5176881803120744,8.745515696439258e-05
95,0.0010789694838985132,0.00023426940436095718,0.007654562492054916,0.5184609180608142,8.748442267535494e-05
96,0.0010798039864946462,0.00023445964370407194,0.0076629777767818754,0.5192221475720777,8.751418501214494e-05
97,0.0010806479898192198,0.00023465205621559697,0.007671402382347461,0.5199725287865421,8.754443212782556e-05
98,0.0010815012420434468,0.00023484658473344247,0.007679836315167829,0.520712676389667,8.757515227116501e-05
99,0.0010823634973103089,0.00023504317345022447,0.007688279581925691,0.5214431636460239,8.7606333803823e-05
100,0.0010832345157306246,0.00023524176791241838,0.007696732189548709,0.5221645258505774,8.763796521557691e-05
101,0.0010841140647204679,0.0002354423153253561,0.007705194145200359,0.5228772617892782,8.76700352120224e-05
102,0.0010850019161770625,0.00023564476390943912,0.007713665456240857,0.5235818400035984,8.770253257441257e-05
103,0.0010858978478592502,0.00023584906321493456,0.007722146130222635,0.5242786995185887,8.773544624745301e-05
104,0.0010868016433262613,0.00023605516410811072,0.00773063617487601,0.5249682521482121,8.776876534809023e-05
105,0.0010877130918664653,0.00023626301875509612,0.007739135598096203,0.5256508845875386,8.780247917299817e-05
106,0.0010886319884175126,0.00023647258060378255,0.0077476444079315485,0.5263269603143822,8.783657720487251e-05
107,0.0010895581334791416,0.00023668380436406178,0.007756162612572789,0.5269968213202799,8.78710491176359e-05
108,0.0010904913330197987,0.00023689664598665648,0.007764690220343324,0.5276607896883869,8.790588478065002e-05
109,0.0010914313983781021,0.0002371110626407796,0.007773227239690325,0.5283191690338298,8.794107426202425e-05
110,0.0010923781461600758,0.00023732701269083242,0.007781773679176624,0.5289722458202921,8.79766078311041e-05
111,0.0010933313990225799,0.00023754445587524547,0.007790329547479013,0.5296202896579133,8.801247601041381e-05
112,0.0010942909837109059,0.00023776335285902707,0.007798894853369414,0.5302635563216577,8.804866947234907e-05
113,0.0010952567319139198,0.00023798366542893674,0.007807469605715035,0.5309022877509431,8.808517909390191e-05
114,0.0010962284801518101,0.0002382053564680269,0.007816053813472659,0.5315367129812186,8.812199595659147e-05
115,0.0010972060696629348,0.0002384283899299796,0.007824647485683405,0.5321670490008391,8.815911134590733e-05
116,0.0010981893462902322,0.00023865273081334322,0.0078332506314679,0.5327935015401408,8.81965167503175e-05
117,0.0010991781603675991,0.00023887834513576162,0.007841863260021838,0.5334162657989059,8.823420385988922e-05
118,0.0011001723666065977,0.0002391051999082772,0.007850485380611892,0.5340355271177658,8.827216456456645e-05
119,0.001101171823983803,0.00023933326310977886,0.007859117002571928,0.5346514615985318,8.831039095214455e-05
120,0.0011021763956290658,0.0002395625036616572,0.00786775813529952,0.5352642366779389,8.834887530597922e-05
121,0.001103185949096673,0.00023979289148983536,0.007876408788254926,0.5358740113129723,8.838761012442862e-05
122,0.0011042003554353416,0.0002400243973127023,0.00788506897095333,0.5364809372227779,8.842658807095208e-05
123,0.0011052194895213442,0.0002402569927172659,0.007893738692964662,0.5370851589381977,8.846580199651179e-05
124,0.0011062432299524599,0.00024049065013509747,0.00790241796391103,0.5376868142260958,8.850524493652922e-05
125,0.0011072714589437302,0.00024072534281868575,0.007911106793464334,0.5382860344837367,8.854491010771763e-05
126,0.001108304062225125,0.00024096104481822374,0.007919805191344054,0.5388829451056668,8.858479090481177e-05
127,0.0011093409289412047,0.00024119773095884818,0.007928513167315184,0.5394776658253178,8.862488089721412e-05
128,0.0011103819515528447,0.00024143537681834708,0.00793723073118632,0.5400703110333508,8.866517382557522e-05
129,0.0011114270257410793,0.00024167395870534761,0.007945957892807866,0.5406609900745795,8.870566359832345e-05
130,0.0011124760503131036,0.00024191345363799334,0.00795469466207038,0.5412498075251406,8.874634428815886e-05
131,0.0011135289271955052,0.0002421538393425337,0.007963441048903463,0.5418368633803086,8.878721013347375e-05
132,0.00111458556112634,0.000242395094183156,0.00797219706327314,0.5424222534798468,8.882825552210697e-05
133,0.0011156458597026096,0.00024263719717294843,0.007980962715181238,0.5430060696203303,8.886947499564207e-05
134,0.0011167097332950384,0.0002428801279545677,0.007989738014664106,0.5435883997674227,8.891086324587016e-05
135,0.0011177770949650577,0.00024312386678140718,0.00799852297179144,0.5441693282548061,8.895241511126837e-05
136,0.001118847860383982,0.00024336839449926235,0.00800731759666516,0.5447489359707379,8.899412557350097e-05
137,0.0011199219477543631,0.00024361369252848985,0.008016121899418372,0.5453273005331295,8.903598975394965e-05
138,0.001120999277733493,0.00024385974284665436,0.008024935890214394,0.5459044964539683,8.907800291027845e-05
139,0.0011220797733590335,0.00024410652797165761,0.008033759579245832,0.546480595293838,8.912016043303846e-05
140,0.0011231633599767393,0.0002443540309453422,0.008042592976733721,0.54705566580723,8.916245784231632e-05
141,0.0011242499650694576,0.00024460223529454195,0.008051436092926197,0.5476297741591655,8.920489077852815e-05
142,0.001125339518361758,0.00024485112505508383,0.008060288938098627,0.5482029839162079,8.924745500928536e-05
143,0.0011264319516826632,0.00024510068474053955,0.008069151522552529,0.5487753562246549,8.929014642203539e-05
144,0.001127527198901362,0.00024535089932764103,0.008078023856614894,0.549346949924978,8.933296102091671e-05
145,0.0011286251958648264,0.0002456017542421285,0.00808690595063755,0.5499178216597828,8.93758949236713e-05
146,0.001129725880337292,0.00024585323534502106,0.008095797814996567,0.5504880259757168,8.941894435861633e-05
147,0.0011308291919415606,0.0002461053289193002,0.00810469946009169,0.5510576154197208,8.946210566167612e-05
148,0.0011319350721020773,0.0002463580216569963,0.00811361089634581,0.551626640629989,8.950537527347537e-05
149,0.0011330434639897425,0.0002466113006466681,0.008122532134204458,0.5521951504219785,8.954874973649418e-05
150,0.001134154312468412,0.00024686515336126545,0.008131463184135332,0.5527631918697801,8.959222569228544e-05
151,0.0011352675638850417,0.00024711956761025753,0.008140404056627054,0.5533308105039964,8.963579986948023e-05
152,0.0011363831663189809,0.0002473745315966809,0.008149354762190255,0.5538980501548759,8.967946909871642e-05
153,0.001137501069392294,0.0002476300338738781,0.008158315311356466,0.5544649531299263,8.972323030176569e-05
154,0.001138621224222563,0.0002478860633347895,0.008167285714677735,0.5550315602794754,8.976708048899945e-05
155,0.0011397435833771642,0.00024814260920157983,0.00817626598272627,0.5555979110588606,8.981101675691654e-05
156,0.0011408681008289736,0.0002483996610155885,0.008185256126094102,0.5561640435874456,8.985503628573196e-05
157,0.0011419947319134638,0.00024865720862759583,0.00819425615539276,0.5567299947046562,8.989913633702614e-05
158,0.0011431234332871484,0.0002489152421883943,0.008203266081252963,0.557295800023209,8.994331425145409e-05
159,0.001144254162887335,0.00024917375213965725,0.008212285914324342,0.5578614939796983,8.998756744651339e-05
160,0.0011453868798931488,0.0002494327292050954,0.008221315665275154,0.558427109882694,9.003189341437048e-05
161,0.0011465215448631827,0.00024969216442199515,0.008230355344792904,0.5589926798273412,9.007628973003583e-05
162,0.0011476581193579922,0.00024995204905497537,0.008239404963582393,0.5595582349943026,9.012075402928902e-05
163,0.0011487965660699198,0.0002502123746257269,0.008248464532366316,0.5601238055672088,9.016528401637554e-05
164,0.0011499368487888316,0.00025047313290523784,0.008257534061885034,0.5606894207721289,9.020987746205644e-05
165,0.00115107893236894,0.0002507343159062653,0.008266613562896362,0.5612551089151797,9.025453220171113e-05
166,0.0011522227826966762,0.0002509959158760459,0.008275703046175373,0.5618208974183766,9.029924613349222e-05
167,0.001153368366659585,0.000251257925289237,0.008284802522514206,0.5623868128538225,9.034401721653121e-05
168,0.0011545156521162027,0.0002515203368410821,0.008293912002721884,0.5629528809763255,9.03888434691941e-05
169,0.0011556646078668923,0.00025178314344079245,0.00830303149762414,0.5635191267545271,9.043372296738566e-05
170,0.0011568152036256025,0.000252046338205139,0.008312161018063261,0.5640855744006238,9.047865384290123e-05
171,0.0011579670398669593,0.0002523098297850411,0.008321300573057099,0.564652520586152,9.052361261483663e-05
172,0.0011591201158016099,0.00025257361802973283,0.00833045017361617,0.5652199673178147,9.05685991733385e-05
173,0.0011602744306902918,0.00025283770279986106,0.008339609830763288,0.5657879165659053,9.061361341163984e-05
174,0.00116142998384236,0.0002531020839671514,0.008348779555533566,0.5663563702654442,9.065865522596723e-05
175,0.0011625867746143652,0.00025336676141408547,0.008357959358974432,0.5669253303172727,9.070372451545138e-05
176,0.001163744802408682,0.00025363173503359013,0.008367149252145628,0.5674947985891093,9.074882118204076e-05
177,0.0011649040666721856,0.0002538970047287367,0.00837634924611922,0.5680647769165675,9.079394513041827e-05
178,0.001166064566894973,0.0002541625704124512,0.00838555935197961,0.5686352671041379,9.083909626792071e-05
179,0.0011672263026091302,0.00025442843200723425,0.008394779580823531,0.5692062709261354,9.088427450446104e-05
180,0.0011683892733875387,0.0002546945894448908,0.008404009943760074,0.5697777901276139,9.092947975245335e-05
