Plant Height (m),Leaf Area (m2),Canopy Biomass (kg),Fruit Biomass (kg)
0.01,1e-05,0.01,0.01
0.012082196723800344,1e-05,0.010080389340388029,0.01
0.014591602620979617,1e-05,0.010178980735639838,0.01
0.01761297862034744,1e-05,0.010243968457230215,0.01
0.021246584351551863,1e-05,0.010285221683991543,0.01
0.02561042147954787,1e-05,0.010374657416810687,0.01
0.03084252056352575,1e-05,0.010455113754924887,0.01
0.037103124264429264,1e-05,0.010549562622967629,0.01
0.044576535666737464,1e-05,0.010627843133787238,0.01
0.05347229599637747,1e-05,0.010714672731062467,0.01
0.06402522857568568,1e-05,0.010758667013001972,0.01
0.07649374266544283,1e-05,0.010833475310253499,0.01
0.09115565000081453,1e-05,0.010927678764636324,0.01
0.10830064262355286,1e-05,0.011020288600887756,0.01
0.12821856819321467,1e-05,0.011119289806952651,0.01
0.15118279511249139,1e-05,0.011218815938832612,0.01
0.17742837453465224,1e-05,0.011309955439295898,0.01
0.20712545865204807,1e-05,0.01136659184772117,0.01
0.24034954807557316,1e-05,0.011454032117196011,0.01
0.2770515228021416,1.0197332197100517e-05,0.011550303709794069,0.01
0.31703179626802247,1.0580087228871614e-05,0.011626841094430693,0.01
0.3599238737101014,1.1193722493368182e-05,0.011725142403546905,0.01
0.4051925529143567,1.1841898609898515e-05,0.011848001759474596,0.01
0.4521505460094634,1.2630063184711541e-05,0.01192320666896071,0.01
0.49999437653691103,1.3424465963248335e-05,0.011997513236767999,0.01
0.5478565488258909,1.4451378185053238e-05,0.012146399961657955,0.01
0.594867262011441,1.639623951385381e-05,0.012281683370962066,0.01
0.6402165821530952,1.847779320539236e-05,0.012411347044635332,0.01
0.6832078490027472,2.2277855115602836e-05,0.012575482573061786,0.01
0.7232952363895108,2.6014343100777463e-05,0.012757675781157052,0.01
0.7601020337015983,2.9414802300208033e-05,0.013007000256528683,0.01
0.7934201505822788,3.3177923525527825e-05,0.0133536166182959,0.01
0.8231944137973526,3.68297889921623e-05,0.01372050818543031,0.01
0.8494969394535411,4.057814520672202e-05,0.014060323507794634,0.01
0.8724969073195858,4.562947967723635e-05,0.014525844552876612,0.01
0.8924303075996128,5.160638027037834e-05,0.014987885394937754,0.01
0.9095727589615855,5.904871731254885e-05,0.015217602370652589,0.01
0.9242170988485149,6.702898250476833e-05,0.015983754947976686,0.01
0.9366562773401762,7.723239521382892e-05,0.016999180304736627,0.01
0.9471712884260484,9.065445177547645e-05,0.01774729767205424,0.01
0.9560234270685747,0.00010751875788641925,0.019053543684577436,0.01
0.9634499877883892,0.00012759522458811147,0.020111767085463774,0.01
0.9696625272461107,0.0001469537149606593,0.02157181317315266,0.01
0.9748469185186198,0.0001672874724179944,0.024167111192775738,0.01
0.979164569898501,0.00018713251628885632,0.027448210462401316,0.01
0.9827543294813004,0.00020995172137327028,0.03210544892036435,0.01
0.9857347291528454,0.0002407400133466601,0.03349531786130958,0.01
0.98820633007471,0.00028952960734434405,0.03992081426202435,0.01
0.9902540155030111,0.00034462089403383147,0.049591442747138406,0.01
0.991949138372433,0.00040367020935655105,0.058870502874278766,0.01
0.9933514744897691,0.00045540266216719037,0.06602912978375103,0.01
0.9945109615033819,0.0005016479135071144,0.0818571017820937,0.01
0.9954692226929398,0.0005493377693283443,0.09352457854992068,0.01
0.9962608860425974,0.0006022220035534797,0.12388759948502258,0.01
0.9969147153320628,0.0006712632650053326,0.1856003387036289,0.01
0.9974545728216706,0.0007465882345362108,0.20348513138343197,0.01
0.9979002337548886,0.0008312188224862897,0.3141933210072572,0.02785616128565182
0.9982680722173018,0.0009242957086005716,0.41189673763773227,4.275618716667416
0.9985716364609882,0.0010182884616400994,0.5941821816425454,4.999994755996937
0.998822130013625,0.0011184464333693174,0.7607912763904858,4.999999999999982
0.9990288129886913,0.0012296725521607757,0.8230419259167675,5.0
0.9991993399643205,0.0013313866878025158,0.9309290396870585,5.0
0.9993400216580358,0.0014399991828114448,0.9709457841565485,5.0
0.9994560803485466,0.0015143897952129364,0.9896856913739936,5.0
0.9995518233298217,0.001554850971336168,0.9958214036752912,5.0
0.999630805713161,0.0015989704338309114,0.9973775521795918,5.0
0.9996959613280296,0.0016482921546297393,0.9979532156032778,5.0
0.9997497109851607,0.0017032067602803216,0.9988277587845311,5.0
0.9997940519712063,0.0017570838229653504,0.9992931050000441,5.0
0.9998306319976231,0.0018130697652420445,0.999830071407552,5.0
0.9998608102831248,0.0018677447913860133,0.9999149690448714,5.0
0.9998857079940405,0.0019075444177883945,0.9999786080308912,5.0
0.9999062498869926,0.0019448998752607616,0.9999942632616957,5.0
0.9999231986817674,0.0019320706029602847,0.9999986044857941,5.0
0.9999371834290417,0.0018847533384408494,0.9999988316305105,5.0
0.9999487229190682,0.0018651030240536875,0.9999990912609829,5.0
0.9999582449961628,0.0018768688317344826,0.9999997536415433,5.0
0.9999661024936777,0.0019037337426809585,0.9999999234818493,5.0
0.9999725863798331,0.0019142590927778847,0.9999999702547102,5.0
0.999977936601953,0.0019185763903722633,0.9999999841229972,5.0
0.9999823510316267,0.0019257753457937847,0.9999999943586184,5.0
0.9999859928430583,0.001954456813884888,0.9999999984855489,5.0
0.9999889965988245,0.001979715221819805,0.9999999992389118,5.0
0.9999914732693265,0.0019696361000306594,0.999999999406507,5.0
0.9999935143726437,0.0019165514984006734,0.9999999997915042,5.0
0.9999951953888352,0.0018556188959820202,0.9988414104039622,4.947307648491107
0.9999965785757582,0.0018163808248520671,0.9927105874678274,4.943290486059982
0.9999977152912463,0.0017778220120378968,0.9916074835389541,4.942676267966892
0.9999986479081074,0.0017489018704661527,0.9905781490322192,4.940535288122246
0.9999994113932787,0.001734427860581556,0.9902062510463917,4.937366633009914
0.9950000345551122,0.001740576688006944,0.9901132316162281,4.932603619716469
0.8919538600595489,0.0017485634383690885,0.9900393323234475,4.9309964842814775
0.8136337378026995,0.0017068992884083905,0.9900159930395352,4.939761758873135
0.7522280396065943,0.0016429138347093919,0.99000557340207,4.944914830585189
0.7029027762002967,0.0015889433652158055,0.9900027465916195,4.942268171791202
0.6625054157903899,0.0015349347053399108,0.9900019299138667,4.942292004316069
0.6288918143486604,0.0014786177253759871,0.9900010603154354,4.943174163692298
0.6005526098156033,0.0014179126182248996,0.9900005891822865,4.9455067059346565
0.576394323777009,0.001348218865073972,0.9900004327675102,4.9494949728140485
0.5556052355761871,0.0012813299575244442,0.9900002513995813,4.949494963637736
0.5375700400668137,0.0012215424750824221,0.9900002184564142,4.949494960882768
0.5218137665055445,0.0011632014583999204,0.990000142131634,4.949494957454828
0.5079638837207024,0.0011076783549711076,0.9900001271526755,4.949494956043349
0.49572406233724103,0.0010506095155609905,0.9900000707927951,4.9494949533633
0.48485561361262086,0.0009999156279729361,0.9900000620942032,4.949494952786378
0.4751641057946009,0.000951670580878105,0.9900000355317407,4.949494951454647
0.46648954753227345,0.0009065274279815683,0.9900000218730504,4.949494950695089
0.4586990760971709,0.0008649989308926524,0.9900000185277058,4.949412470791206
0.4516814349851976,0.0008252651917550291,0.9900000134312529,4.949494950190827
0.44534274987613764,0.0007844136107212668,0.9900000093947242,4.949494950007252
0.43960326012411105,0.0007472754270175794,0.9900000076063558,4.949494949892339
0.4343947626540958,0.0007120618597653186,0.9900000056860386,4.949494949803203
0.42965859336230555,0.0006779089836184144,0.9900000039957354,4.949494949710129
0.42534401853204645,0.0006469410970792572,0.9900000027659964,4.9489212389217
0.4214069422034739,0.0006171570517100565,0.9900000020968697,4.949494949605696
0.4178088593150187,0.0005892466480484973,0.9900000015034837,4.947860879305925
0.41451600170321135,0.0005604395622287022,0.9900000013106457,4.949494949562721
0.4114986366789621,0.0005333466100328828,0.9900000010565375,4.949494949551321
0.40873048723588756,0.000507850299388149,0.9900000008508261,4.94949494954032
0.40618824991754704,0.00048411392839252664,0.9900000007989708,4.9494949495362475
0.4038511916235194,0.00046168155579149467,0.9900000006317868,4.949494949528508
0.4017008157951761,0.0004369802334686772,0.9900000005169909,4.9494949495218945
