Plant Height (m),Leaf Area (m2),Canopy Biomass (kg),Fruit Biomass (kg)
0.01,1e-05,0.01,0.01
0.012082196723800344,1e-05,0.010085762158085236,0.01
0.014591602620979617,1e-05,0.01014465970119164,0.01
0.01761297862034744,1e-05,0.010225163043044716,0.01
0.021246584351551863,1e-05,0.010309461509252106,0.01
0.02561042147954787,1e-05,0.010398197714548729,0.01
0.03084252056352575,1e-05,0.010468699558109085,0.01
0.037103124264429264,1e-05,0.010551521045665832,0.01
0.044576535666737464,1e-05,0.010615823589497454,0.01
0.05347229599637747,1e-05,0.010671355538756394,0.01
0.06402522857568568,1e-05,0.010740135438898646,0.01
0.07649374266544283,1e-05,0.010838485574601101,0.01
0.09115565000081453,1e-05,0.010880622628016711,0.01
0.10830064262355286,1e-05,0.010927525426347928,0.01
0.12821856819321467,1e-05,0.011023109957693717,0.01
0.15118279511249139,1e-05,0.011085149323675943,0.01
0.17742837453465224,1e-05,0.011149190336649599,0.01
0.20712545865204807,1e-05,0.011227291436200562,0.01
0.24034954807557316,1e-05,0.011301369295861483,0.01
0.2770515228021416,1.0287238090481063e-05,0.011374195792772768,0.01
0.31703179626802247,1.0860935230216362e-05,0.011455207262302194,0.01
0.3599238737101014,1.152276954586994e-05,0.011561037821679242,0.01
0.4051925529143567,1.2275420286685566e-05,0.011641150874665595,0.01
0.4521505460094634,1.3183730108776887e-05,0.011759080502337286,0.01
0.49999437653691103,1.4445589031771627e-05,0.0119045291783277,0.01
0.5478565488258909,1.613051019299889e-05,0.012065674491595532,0.01
0.594867262011441,1.8185401107446688e-05,0.012224356047310685,0.01
0.6402165821530952,2.0580988249896426e-05,0.012399772933609755,0.01
0.6832078490027472,2.3517915059443354e-05,0.012549299660365333,0.01
0.7232952363895108,2.6884977455691865e-05,0.012838032987958829,0.01
0.7601020337015983,3.0998837737346985e-05,0.012958596936586417,0.01
0.7934201505822788,3.613922917415383e-05,0.013267383886661254,0.01
0.8231944137973526,4.243959525800114e-05,0.013519194450207866,0.01
0.8494969394535411,4.987540704949153e-05,0.013873861607448721,0.01
0.8724969073195858,5.8090313613635476e-05,0.014514958418353863,0.01
0.8924303075996128,6.723053839962476e-05,0.015178025939959384,0.01
0.9095727589615855,7.705489103127853e-05,0.01604777120171585,0.01
0.9242170988485149,8.840328367822897e-05,0.016889807286887985,0.01
0.9366562773401762,0.00010250529267190174,0.017965048736272162,0.01
0.9471712884260484,0.00012085343643317161,0.019498101588443114,0.01
0.9560234270685747,0.00014070443226147739,0.021499748855852645,0.01
0.9634499877883892,0.0001598691815535718,0.023542983360572086,0.01
0.9696625272461107,0.00018084706441235976,0.026548330219503452,0.01
0.9748469185186198,0.00021125470995322454,0.029082825122632557,0.01
0.979164569898501,0.00024936477422501897,0.034742193868911295,0.01
0.9827543294813004,0.0002892987534349086,0.03721797021012876,0.01
0.9857347291528454,0.0003292902006217392,0.047052736800286536,0.01
0.98820633007471,0.0003694833970542154,0.05328570755624745,0.01
0.9902540155030111,0.00041117243709963693,0.0661891372586041,0.01
0.991949138372433,0.0004583716137357684,0.08530838102109861,0.01
0.9933514744897691,0.0005105042816532595,0.11607441746504099,0.01
0.9945109615033819,0.0005691257451907465,0.139079491434254,0.01
0.9954692226929398,0.0006360889631434117,0.17247879608234365,0.01
0.9962608860425974,0.0007151136639096741,0.26783100442398633,0.011981765855053946
0.9969147153320628,0.000795966132518144,0.3830151247689142,1.3499069651144802
0.9974545728216706,0.0008815135507031393,0.5517140936105036,4.998643921096993
0.9979002337548886,0.0009823874135730013,0.7141343803691881,4.99999999989
0.9982680722173018,0.0010833635124366798,0.8443891885393022,5.0
0.9985716364609882,0.0011848876865056409,0.9162871129237785,5.0
0.998822130013625,0.0012923898095658182,0.9529016059788898,5.0
0.9990288129886913,0.0014091601966010592,0.9681979777266939,5.0
0.9991993399643205,0.0015156897546033104,0.9881013516431887,5.0
0.9993400216580358,0.0015732793797325134,0.9967256340852406,5.0
0.9994560803485466,0.0016319951833303117,0.999096949666758,5.0
0.9995518233298217,0.0016918104744743801,0.999613010288949,5.0
0.999630805713161,0.0017507151858058095,0.9997915735514523,5.0
0.9996959613280296,0.0018006722999060578,0.9998374928945098,5.0
0.9997497109851607,0.0018494863545508262,0.9999127431496384,5.0
0.9997940519712063,0.0019048613565265126,0.9999678096890853,5.0
0.9998306319976231,0.00196275342917016,0.9999932855912453,5.0
0.9998608102831248,0.0020136828269948204,0.9999981869757315,5.0
0.9998857079940405,0.0020598374456640054,0.999999650777643,5.0
0.9999062498869926,0.00211148925073152,0.9999999335843325,5.0
0.9999231986817674,0.0021596670985235353,0.9999999847050287,5.0
0.9999371834290417,0.002199751896829453,0.9999999925133151,5.0
0.9999487229190682,0.0022374089214627834,0.9999999972024429,5.0
0.9999582449961628,0.002267390286719216,0.9999999993025529,5.0
0.9999661024936777,0.002293829907210471,0.9999999998715983,5.0
0.9999725863798331,0.0023194248250850147,0.9999999999644804,5.0
0.999977936601953,0.002337571797940073,0.9999999999933158,5.0
0.9999823510316267,0.0023578294317770226,0.9999999999985797,5.0
0.9999859928430583,0.002380098981217141,0.9999999999996759,5.0
0.9999889965988245,0.0023936181606548737,0.9999999999998562,5.0
0.9999914732693265,0.0023636884091669135,0.999999999999964,5.0
0.9999935143726437,0.0023518138029716184,0.9999999999999923,5.0
0.9999951953888352,0.0023311944251020256,0.9999999999999981,5.0
0.9999965785757582,0.0022974862983270463,0.9999999999999993,5.0
0.9999977152912463,0.0022634843504398586,0.9999999999999997,5.0
0.9999986479081074,0.0022340927910649414,0.9999999999999998,5.0
0.9999994113932787,0.0021986362407304645,0.9999999999999998,5.0
0.9950000345551122,0.002130581230747697,0.99327327706476,4.938054762627785
0.8919538600595489,0.002060144546423724,0.9909981654966346,4.938493257256326
0.8136337378026995,0.0020001993572605573,0.9902583501606749,4.935502341696048
0.7522280396065943,0.001942456372277737,0.9900954451936318,4.9346409592033655
0.7029027762002967,0.0018776494130332872,0.9900545220800491,4.9367004572241555
0.6625054157903899,0.0018067394704545097,0.9900241648687452,4.9393562055139935
0.6288918143486604,0.0017480258189300883,0.9900107943759304,4.934863457490546
0.6005526098156033,0.0016935770005952575,0.9900062490005023,4.933240909209053
0.576394323777009,0.001640842239816472,0.9900026426578471,4.9324643834406725
0.5556052355761871,0.0015842712642027475,0.9900018634550907,4.934170646887727
0.5375700400668137,0.0015283614372963614,0.9900010505856643,4.934155048008902
0.5218137665055445,0.0014718344765339215,0.9900004712955214,4.935044797683398
0.5079638837207024,0.001413495746646492,0.9900002861161401,4.937421372219574
0.49572406233724103,0.0013530758726084085,0.9900001958180752,4.9420640441307
0.48485561361262086,0.001292890563689253,0.9900001596971582,4.945960877476183
0.4751641057946009,0.0012320492885826025,0.9900000943025473,4.949494954862818
0.46648954753227345,0.0011735165620107425,0.9900000467435872,4.949494952130361
0.4586990760971709,0.0011221785405372128,0.9900000307636269,4.943883279038668
0.4516814349851976,0.0010732474677726538,0.9900000215497955,4.943404816801152
0.44534274987613764,0.001027813707195116,0.9900000152560134,4.9398775341271115
0.43960326012411105,0.0009838313350915451,0.9900000121720169,4.940897206883023
0.4343947626540958,0.000942311539709528,0.9900000107812637,4.939076076104616
0.42965859336230555,0.0009032230536282744,0.9900000061096971,4.93691154630406
0.42534401853204645,0.0008655637314943251,0.9900000035568126,4.937167483049587
0.4214069422034739,0.000827390121500509,0.9900000023937074,4.944574974540073
0.4178088593150187,0.0007911371244162869,0.9900000018628389,4.943667836283704
0.41451600170321135,0.0007569347442185541,0.9900000013599768,4.941700569139618
0.4114986366789621,0.0007241363883363559,0.9900000008144079,4.942003769806476
0.40873048723588756,0.000692696080068589,0.9900000005095891,4.942279942311861
0.40618824991754704,0.0006620991000879938,0.9900000003983093,4.944739766367999
0.4038511916235194,0.0006330460787437216,0.990000000319741,4.943815421464084
0.4017008157951761,0.0006057175790925504,0.9900000002034006,4.941332517102995
