Time (hr),Plant Height (m),Leaf Area (m²),Number of Leaves (unitless),Spikelet Count (unitless),Fruit Biomass (kg)
0,0.0010344827586206,0.0002241379310344,0.0068965517241379,0.3448275862068966,8.620689655172413e-05
1,0.0010355174015395,0.00022437331818,0.0069041394847261,0.3451724671798611,8.624999590325104e-05
2,0.0010360379648065,0.0002244917536724,0.0069117329662563,0.3458631025067879,8.627155468766411e-05
3,0.0010363026244192,0.0002245519684297,0.0069193295413067,0.3472473283540747,8.628234123839942e-05
4,0.001036440442925,0.0002245833244369,0.0069269239680687,0.3500257215469518,8.628774429381775e-05
5,0.0010365154731771,0.0002246003942778,0.0069345058936666,0.3535430548014373,8.629045941475315e-05
6,0.0010365589708234,0.0002246102891019,0.0069420553061053,0.3570958403217244,8.629183466033732e-05
7,0.0010365859220621,0.0002246164192465,0.0069495353170849,0.3606844198058598,8.629254398154463e-05
8,0.0010366036731,0.0002246204576406,0.0069568846194831,0.3643091384784403,8.629292409990388e-05
9,0.0010366161506586,0.00022462329917,0.0069640216707919,0.3679703420925353,8.629314305905663e-05
10,0.0010366256833935,0.0002246254741196,0.006970882030187,0.3716683680635474,8.629328457612618e-05
11,0.0010366337330954,0.0002246273145189,0.0069774777590474,0.3754035570368993,8.629339036491327e-05
12,0.001036641201684,0.0002246290246214,0.006983906780727,0.379176282450887,8.629348155548963e-05
13,0.00103664862489,0.0002246307254992,0.0069902860605181,0.3829869214957908,8.629356895360977e-05
14,0.0010366562996715,0.0002246324841986,0.0069966956389099,0.3868358551515606,8.629365814324793e-05
15,0.001036664379903,0.0002246343354526,0.007003173614253,0.3907234682258791,8.629375203992615e-05
16,0.0010366729404152,0.0002246362961532,0.0070097321841324,0.394650149392608,8.629385219060818e-05
17,0.0010366820147163,0.0002246383738642,0.0070163713385306,0.3986162912306183,8.62939594389935e-05
18,0.0010366916154448,0.0002246405714364,0.0070230863145537,0.4026222902630126,8.629407426555509e-05
19,0.0010367017449692,0.0002246428894007,0.0070298709838006,0.4066685469967397,8.629419696124457e-05
20,0.0010367124007507,0.000224645327179,0.0070367192316616,0.4107554659626067,8.629432771647223e-05
21,0.0010367235780205,0.0002246478836888,0.0070436254505604,0.4148834557556933,8.629446666698409e-05
22,0.0010367352702924,0.0002246505574589,0.0070505845866007,0.4190529290761721,8.629461390284773e-05
23,0.0010367474705721,0.0002246533469032,0.0070575922038723,0.4232643027705375,8.629476949079663e-05
24,0.0010367601719107,0.0002246562504454,0.0070646444436116,0.427517997873249,8.62949334854898e-05
25,0.0010367733676433,0.0002246592665735,0.0070717379529623,0.4318144396487927,8.629510593521885e-05
26,0.0010367870514775,0.0002246623938595,0.007078869811653,0.4361540576341646,8.629528688482674e-05
27,0.0010368012175129,0.0002246656309643,0.0070860374661491,0.4405372856817801,8.62954763772209e-05
28,0.0010368158602298,0.0002246689766348,0.0070932386735015,0.4449645620028148,8.629567445417361e-05
29,0.0010368309744653,0.0002246724296986,0.0071004714544567,0.4494363292109797,8.629588115675802e-05
30,0.0010368465553867,0.0002246759890583,0.007107734054575,0.453953034366736,8.629609652559543e-05
31,0.0010368625984639,0.0002246796536848,0.0071150249120074,0.4585151290219533,8.62963206010031e-05
32,0.0010368790986909,0.0002246834224412,0.0071223425963159,0.4631230692650162,8.629655340742743e-05
33,0.0010368960510377,0.000224687294185,0.0071296858146727,0.4677773157663841,8.629679496283407e-05
34,0.0010369134506502,0.0002246912678135,0.0071370534036503,0.4724783338246071,8.629704528320568e-05
35,0.0010369312929286,0.0002246953422817,0.0071444443164051,0.4772265934128044,8.629730438463233e-05
36,0.0010369495735494,0.000224699516607,0.0071518576092906,0.4820225692256093,8.629757228422693e-05
37,0.0010369682884619,0.000224703789869,0.0071592924294274,0.4868667407265844,8.629784900047386e-05
38,0.0010369874338737,0.0002247081612054,0.0071667480036932,0.4917595921961137,8.629813455331129e-05
39,0.0010370070062322,0.0002247126298087,0.0071742236291652,0.4967016127797743,8.629842896409328e-05
40,0.0010370270022067,0.0002247171949215,0.0071817186648839,0.5016932965371943,8.629873225550304e-05
41,0.0010370474186699,0.0002247218558327,0.0071892325247688,0.5067351424914002,8.62990444514505e-05
42,0.0010370682513781,0.0002247266115776,0.0071967646364135,0.5118276546786602,8.629936554725668e-05
43,0.0010370894957325,0.0002247314611113,0.0072043144618809,0.5169713421988268,8.62996955264336e-05
44,0.0010371111471366,0.000224736403389,0.0072118815039177,0.5221667192661853,8.6300034368815e-05
45,0.0010371332011552,0.0002247414374028,0.0072194653059011,0.527414304041383,8.630038205319244e-05
46,0.0010371556535796,0.0002247465621958,0.0072270654492994,0.5327146201325623,8.630073856054888e-05
47,0.0010371785004454,0.0002247517768667,0.0072346815503334,0.5380681973657181,8.6301103875435e-05
48,0.0010372017380309,0.0002247570805694,0.0072423132565646,0.5434755708864929,8.630147798520868e-05
49,0.0010372253628458,0.00022476247251,0.0072499602437012,0.5489372812136277,8.630186088001066e-05
50,0.0010372493716164,0.0002247679519441,0.0072576222127156,0.5544538742929959,8.6302252552639e-05
51,0.0010372737612703,0.0002247735181727,0.0072652988872878,0.5600259015521906,8.630265299838526e-05
52,0.0010372985286958,0.0002247791704881,0.0072729900074367,0.5656539199586751,8.630306220933418e-05
53,0.0010373236708573,0.0002247849081996,0.0072806953303564,0.5713384920738823,8.630348017724014e-05
54,0.0010373491848451,0.0002247907306456,0.0072884146299134,0.5770801861086636,8.630390689487014e-05
55,0.0010373750678943,0.0002247966371968,0.0072961476956153,0.5828795759796915,8.630434235658941e-05
56,0.0010374013173872,0.0002248026272576,0.00730389433142,0.5887372413666214,8.630478655857663e-05
57,0.0010374279308503,0.0002248087002653,0.0073116543545483,0.594653767769918,8.630523949886138e-05
58,0.0010374549059472,0.0002248148556881,0.0073194275943677,0.6006297465693028,8.630570117727912e-05
59,0.0010374822404709,0.0002248210930236,0.0073272138913689,0.6066657750828051,8.630617159539052e-05
60,0.001037509932336,0.0002248274117972,0.0073350130962397,0.6127624566264083,8.630665075638847e-05
61,0.001037537979571,0.0002248338115601,0.0073428250690297,0.6189204005742944,8.630713866500297e-05
62,0.0010375663797167,0.0002248402917527,0.0073506496704278,0.6251402224286148,8.63076353119766e-05
63,0.001037595130151,0.0002248468517785,0.007358486766268,0.6314225438764268,8.630814068231061e-05
64,0.0010376242282459,0.0002248534910397,0.0073663362292854,0.6377679928495114,8.630865475931013e-05
65,0.0010376536714402,0.0002248602089535,0.0073741979395915,0.6441772035859461,8.630917752653448e-05
66,0.0010376834572713,0.0002248670049596,0.0073820717845724,0.6506508166928747,8.6309708968706e-05
67,0.0010377135833869,0.0002248738785229,0.0073899576585427,0.6571894792101918,8.631024907210312e-05
68,0.0010377440475472,0.0002248808291337,0.0073978554623107,0.6637938446750077,8.631079782470045e-05
69,0.0010377748476226,0.0002248878563072,0.0074057651027284,0.6704645731868275,8.63113552161867e-05
70,0.001037805981589,0.0002248949595829,0.0074136864922559,0.6772023314734151,8.631192123792535e-05
71,0.0010378374475229,0.0002249021385229,0.0074216195485543,0.6840077929573308,8.631249588289045e-05
72,0.0010378692427927,0.0002249093925287,0.0074295641857294,0.6908816378368249,8.631307912370406e-05
73,0.0010379013644936,0.0002249167209394,0.0074375203192131,0.6978245531469887,8.631367092420703e-05
74,0.0010379338096588,0.0002249241230803,0.0074454878678847,0.7048372328249531,8.631427124516874e-05
75,0.0010379665753607,0.0002249315982856,0.0074534667548789,0.7119203777774684,8.631488004707012e-05
76,0.001037999658757,0.0002249391459087,0.007461456907779,0.7190746959500272,8.631549729142804e-05
77,0.0010380330571098,0.0002249467653268,0.0074694582585294,0.7263009023971159,8.631612294139458e-05
78,0.001038066767792,0.0002249544559422,0.0074774707432314,0.7335997193533856,8.631675696199824e-05
79,0.0010381007882867,0.0002249622171824,0.0074854943018945,0.7409718763056429,8.631739932020991e-05
80,0.0010381351161841,0.0002249700484991,0.0074935288781823,0.7484181100656127,8.631804998492493e-05
81,0.0010381697491776,0.0002249779493676,0.0075015744191656,0.7559391648434557,8.631870892690664e-05
82,0.0010382046848992,0.0002249859192489,0.0075096308737364,0.7635357923251368,8.6319376114186e-05
83,0.0010382399210008,0.0002249939576089,0.0075176981932102,0.7712087517459374,8.632005151437114e-05
84,0.0010382754551926,0.0002250020639266,0.0075257763315138,0.7789588099654667,8.63207350957574e-05
85,0.001038311285259,0.0002250102376978,0.0075338652451826,0.7867867415438075,8.632142682784014e-05
86,0.0010383474090647,0.0002250184784366,0.0075419648932706,0.7946933288186153,8.632212668153129e-05
87,0.0010383838245557,0.0002250267856758,0.0075500752372267,0.8026793619830884,8.632283462923029e-05
88,0.0010384205297575,0.0002250351589658,0.0075581962407602,0.8107456391647622,8.632355064482426e-05
89,0.0010384575227727,0.0002250435978748,0.007566327869707,0.8188929665051174,8.632427470365497e-05
90,0.0010384948017774,0.0002250521019879,0.0075744700919021,0.8271221582399955,8.632500678247119e-05
91,0.0010385323650185,0.0002250606709058,0.0075826228770587,0.8354340367808223,8.632574685937534e-05
92,0.0010385702107594,0.0002250693042335,0.00759078619629,0.8438294327977953,8.632649491226259e-05
93,0.0010386083373041,0.0002250780015847,0.0075989600222237,0.8523091853021884,8.632725091957006e-05
94,0.0010386467430091,0.0002250867625855,0.007607144329009,0.8608741417297606,8.632801486062403e-05
95,0.0010386854262867,0.0002250955868744,0.0076153390922762,0.8695251580251442,8.632878671578791e-05
96,0.0010387243856057,0.0002251044741028,0.0076235442890746,0.8782630987271447,8.632956646651223e-05
97,0.0010387636194911,0.000225113423935,0.0076317598978037,0.8870888370549322,8.63303540953368e-05
98,0.0010388031265217,0.0002251224360474,0.0076399858981441,0.8960032549951117,8.63311495858704e-05
99,0.0010388429053289,0.0002251315101284,0.0076482222709897,0.905007243389672,8.633195292276019e-05
100,0.0010388829545939,0.0002251406458777,0.0076564689983839,0.9141017020248202,8.633276409165713e-05
101,0.0010389232730467,0.0002251498430061,0.0076647260634589,0.923287539720704,8.633358307918032e-05
102,0.0010389638594017,0.000225159101221,0.0076729934499999,0.932565674423626,8.633440987101743e-05
103,0.0010390047123899,0.0002251684202334,0.0076812711426141,0.9419370332968092,8.633524445287798e-05
104,0.0010390458307727,0.0002251777997612,0.0076895591267878,0.9514025528124596,8.633608681095108e-05
105,0.0010390872133489,0.000225187239531,0.0076978573888906,0.9609631788449432,8.633693693211687e-05
106,0.001039128858957,0.0002251967392783,0.0077061659161542,0.970619866764992,8.633779480403576e-05
107,0.0010391707664749,0.0002252062987476,0.0077144846966415,0.9803735815349032,8.633866041517746e-05
108,0.0010392129348202,0.0002252159176923,0.0077228137192119,0.990225297804714,8.633953375482073e-05
109,0.0010392553629485,0.0002252255958746,0.0077311529734845,1.000176000009352,8.634041481303917e-05
110,0.0010392980498524,0.0002252353330651,0.0077395024498042,1.010226682466761,8.634130358068059e-05
111,0.0010393409945603,0.0002252451290425,0.0077478621392074,1.0203783494770122,8.634220004934397e-05
112,0.0010393841960854,0.000225254983582,0.0077562320331215,1.0306320154238962,8.634310420981032e-05
113,0.0010394276534512,0.0002252648964613,0.0077646121234899,1.0409887048753226,8.634401605283317e-05
114,0.0010394713657034,0.0002252748674631,0.0077730024028184,1.0514494526850828,8.63449355695203e-05
115,0.001039515331915,0.0002252848963761,0.0077814028641837,1.06201530409581,8.634586275151213e-05
116,0.0010395595511888,0.0002252949829961,0.007789813501225,1.0726873148430591,8.634679759105902e-05
117,0.0010396040226575,0.0002253051271256,0.0077982343081269,1.0834665512604742,8.63477400810487e-05
118,0.0010396487454836,0.0002253153285737,0.0078066652795999,1.0943540903860287,8.634869021500927e-05
119,0.0010396937188587,0.0002253255871563,0.0078151064108588,1.105351020069342,8.634964798710044e-05
120,0.0010397389420025,0.0002253359026957,0.0078235576976026,1.1164584390800705,8.635061339209928e-05
121,0.0010397844141622,0.0002253462750203,0.0078320191359941,1.1276774572173884,8.635158642538378e-05
122,0.0010398301345779,0.0002253567039572,0.007840490722479,1.139009195421733,8.635256708184499e-05
123,0.0010398761024996,0.0002253671893354,0.0078489724538598,1.1504547858859355,8.635355535643097e-05
124,0.0010399223171955,0.0002253777309882,0.0078574643273229,1.1620153721677438,8.635455124440914e-05
125,0.0010399687779548,0.0002253883287538,0.0078659663404437,1.1736921093036072,8.635555474148817e-05
126,0.0010400154840901,0.0002253989824755,0.0078744784911808,1.1854861639236731,8.635656584387052e-05
127,0.0010400624349367,0.0002254096920019,0.0078830007778661,1.1973987143679654,8.635758454827028e-05
128,0.0010401096298528,0.0002254204571868,0.0078915331991917,1.209430950803742,8.635861085191426e-05
129,0.0010401570682193,0.0002254312778891,0.0079000757541978,1.221584075344036,8.635964475253507e-05
130,0.0010402047494385,0.0002254421539727,0.0079086284422591,1.2338593021673847,8.63606862483602e-05
131,0.001040252672934,0.0002254530853063,0.0079171912630726,1.2462578576387549,8.636173533809973e-05
132,0.0010403008381232,0.0002254640717571,0.0079257642165291,1.2587809804327703,8.636279202005881e-05
133,0.0010403492444308,0.000225475113194,0.0079343473027673,1.2714299216565612,8.63638562925813e-05
134,0.0010403978912952,0.0002254862094891,0.0079429405221945,1.284205944974098,8.636492815426434e-05
135,0.0010404467781713,0.0002254973605182,0.0079515438754915,1.2971103267318955,8.636600760405875e-05
136,0.001040495904532,0.0002255085661612,0.0079601573636101,1.310144356086043,8.636709464131278e-05
137,0.0010405452698678,0.0002255198263021,0.0079687809877667,1.3233093351305296,8.636818926578783e-05
138,0.0010405948736875,0.0002255311408288,0.0079774147494345,1.3366065790268722,8.636929147766023e-05
139,0.0010406447155171,0.0002255425096335,0.0079860586503355,1.350037416135045,8.637040127751657e-05
140,0.0010406947949,0.000225553932612,0.0079947126924319,1.3636031881457202,8.637151866634566e-05
141,0.0010407451113958,0.000225565409664,0.008003376877918,1.377305250213831,8.637264364552928e-05
142,0.0010407956645648,0.0002255769406894,0.0080120512091494,1.3911449710942292,8.637377621629954e-05
143,0.0010408464539752,0.0002255885255897,0.0080207356886706,1.4051237332775794,8.637491638000614e-05
144,0.001040897479207,0.0002256001642692,0.0080294303192247,1.4192429331277867,8.637606413824462e-05
145,0.001040948739854,0.0002256118566354,0.008038135103755,1.4335039810208858,8.637721949291548e-05
146,0.0010410002355239,0.0002256236025988,0.0080468500454024,1.4479083014853629,8.637838244624886e-05
147,0.0010410519658386,0.0002256354020735,0.0080555751475006,1.4624573333438995,8.637955300081214e-05
148,0.001041103930434,0.0002256472549762,0.0080643104135712,1.4771525298565449,8.638073115950938e-05
149,0.0010411561289599,0.0002256591612274,0.0080730558473176,1.4919953588653176,8.63819169255766e-05
150,0.0010412085610793,0.00022567112075,0.00808181145262,1.5069873029402592,8.638311030257528e-05
151,0.0010412612264684,0.0002256831334705,0.0080905772335295,1.5221298595269417,8.638431129438501e-05
152,0.0010413141248065,0.0002256951993157,0.0080993531942284,1.5374245410959848,8.638551990486926e-05
153,0.0010413672557807,0.0002257073182142,0.0081081393390444,1.552872875293278,8.638673613803715e-05
154,0.001041420619088,0.0002257194900971,0.0081169356724548,1.568476405091824,8.638795999812025e-05
155,0.0010414742144365,0.0002257317148978,0.0081257421990868,1.5842366889451611,8.638919148960727e-05
156,0.0010415280415453,0.0002257439925523,0.0081345589237149,1.6001553009423468,8.639043061725765e-05
157,0.0010415821001446,0.0002257563229992,0.0081433858512578,1.6162338309645023,8.639167738610494e-05
158,0.0010416363899758,0.0002257687061795,0.0081522229867746,1.632473884842927,8.6392931801455e-05
159,0.001041690910791,0.0002257811420367,0.0081610703354611,1.6488770845187917,8.639419386888182e-05
160,0.0010417456623529,0.0002257936305167,0.0081699279026458,1.665445068204428,8.639546359422219e-05
161,0.0010418006444343,0.0002258061715678,0.0081787956937865,1.6821794905462246,8.639674098356998e-05
162,0.0010418558568248,0.000225818765142,0.0081876737144883,1.6990820227887191,8.639802604349671e-05
163,0.0010419112993265,0.0002258314111942,0.0081965619704881,1.7161543529409533,8.639931878092857e-05
164,0.0010419669717527,0.0002258441096819,0.0082054604676456,1.7333981859443883,8.640061920308236e-05
165,0.0010420228739264,0.0002258568605648,0.0082143692119371,1.7508152438424438,8.640192731743074e-05
166,0.0010420790056798,0.0002258696638045,0.0082232882094512,1.7684072659516945,8.640324313168241e-05
167,0.0010421353668538,0.0002258825193648,0.0082322174663847,1.7861760090347687,8.640456665376954e-05
168,0.0010421919572978,0.0002258954272114,0.0082411569890401,1.804123247474954,8.640589789183918e-05
169,0.0010422487768691,0.0002259083873118,0.0082501067838224,1.822250773452543,8.640723685424653e-05
170,0.0010423058254331,0.0002259213996353,0.0082590668572364,1.840560397122932,8.640858354954923e-05
171,0.0010423631028628,0.000225934464153,0.0082680372158842,1.8590539467964933,8.640993798650236e-05
172,0.001042420609284,0.0002259475808933,0.0082770178672202,1.8777332691012585,8.64113001827146e-05
173,0.0010424783449487,0.0002259607499137,0.0082860088191406,1.8966002291748476,8.641267016024685e-05
174,0.0010425363101726,0.0002259739712858,0.0082950100797804,1.915656710854029,8.641404794340907e-05
175,0.0010425945053033,0.0002259872450886,0.0083040216574119,1.934904616863993,8.641543355765749e-05
176,0.0010426529307048,0.0002260005714049,0.0083130435603944,1.954345869008401,8.641682702904238e-05
177,0.0010427115867492,0.0002260139503193,0.0083220757971496,1.973982408360768,8.64182283839315e-05
178,0.0010427704738133,0.0002260273819174,0.0083311183761482,1.9938161954574625,8.64196376488714e-05
179,0.0010428295922764,0.0002260408662856,0.0083401713059042,2.013849210492479,8.642105485051785e-05
180,0.001042888942519,0.0002260544035103,0.0083492345949709,2.0340834535140733,8.64224800156008e-05
181,0.0010429485249228,0.0002260679936783,0.0083583082519398,2.054520944623316,8.642391317090667e-05
182,0.0010430083401095,0.0002260816369311,0.008367392286126,2.0751637241527217,8.642535435187648e-05
183,0.0010430683888181,0.0002260953334367,0.008376486707199,2.096013852878458,8.642680359823582e-05
184,0.0010431286718432,0.0002261090833758,0.0083855915249993,2.117073412229748,8.64282609518091e-05
185,0.0010431891900046,0.000226122886935,0.0083947067494485,2.1383445044978444,8.642972645542703e-05
186,0.0010432499441321,0.000226136744303,0.0084038323905046,2.159829253045811,8.643120015238089e-05
187,0.0010433109350576,0.0002261506556691,0.0084129684581409,2.181529802519743,8.643268208615073e-05
188,0.0010433721636118,0.0002261646212221,0.0084221149623356,2.2034483190617493,8.643417230027044e-05
189,0.0010434336306221,0.0002261786411505,0.0084312719130671,2.225586990524887,8.643567083826121e-05
190,0.0010434953369119,0.0002261927156414,0.0084404393203123,2.2479480266901386,8.643717774359946e-05
191,0.0010435572832999,0.0002262068448812,0.0084496171940459,2.2705336594855026,8.643869305970173e-05
192,0.0010436194707319,0.0002262210290851,0.0084588055445914,2.2933461431930287,8.644021683472359e-05
193,0.0010436819002126,0.0002262352684817,0.0084680043824329,2.3163877546785536,8.644174911911663e-05
194,0.0010437445727725,0.0002262495633055,0.0084772137181225,2.3396607936205096,8.644328996440825e-05
195,0.0010438074894509,0.0002262639137929,0.0084864335622348,2.36316758273938,8.644483942259323e-05
196,0.0010438706512876,0.0002262783201806,0.0084956639253454,2.386910468028597,8.644639754583122e-05
